Tiempo (s),Voltaje (V)
0.0517919999957085,1.54565994098084
1.59568499999493,1.56912540027406
1.60851299999654,1.5681610663305
1.62129299999774,1.58423329872312
1.62741499999911,1.59805541858077
1.63343499999493,1.57523284858325
1.64145099999756,1.56880395562621
1.64754299999774,1.58134029689245
1.65453599999845,1.56848251097836
1.66064400000125,1.57362562534399
1.66599300000072,1.5816617415403
1.67226399999857,1.57041117886547
1.67860000000149,1.55208883393789
1.68509099999815,1.59387663815869
1.69130299999565,1.59869830787648
1.69770799999684,1.57073262351332
1.7037519999966,1.57169695745688
1.70935099999607,1.58551907731453
1.71520499999821,1.57105406816117
1.72134200000018,1.57780440576607
1.7273919999972,1.58905496844091
1.73372500000149,1.59259085956728
1.73958399999887,1.58423329872312
1.74601299999654,1.57619718252681
1.75206199999899,1.57587573787896
1.75848099999875,1.58294752013171
1.76454899999499,1.60319853294641
1.76982800000161,1.59709108463721
1.7757839999944,1.57941162900534
1.78226900000125,1.57812585041393
1.78829899999499,1.57362562534399
1.79499399999529,1.57941162900534
1.80162900000066,1.59484097210225
1.80900699999928,1.57362562534399
1.81475499999523,1.57684007182252
1.82137200000137,1.57008973421762
1.82776099999994,1.58037596294889
1.83345899999887,1.58680485590594
1.83896499999613,1.59130508097587
1.84515799999982,1.58423329872312
1.85120600000024,1.59741252928507
1.85746999999881,1.58423329872312
1.86363499999791,1.57716151647037
1.87055200000107,1.58294752013171
1.8768219999969,1.57651862717466
1.88288899999857,1.59355519351084
1.88848900000006,1.58873352379305
1.89377499999851,1.58937641308876
1.89957299999893,1.58262607548386
1.90652399999648,1.58455474337097
1.91328000000119,1.60159130970715
1.91918899999559,1.58969785773661
1.92508399999887,1.58455474337097
1.93068599999696,1.60159130970715
1.93596899999678,1.58230463083601
1.94186299999803,1.58519763266668
1.94734799999744,1.58069740759674
1.95290699999779,1.58134029689245
1.95839099999517,1.58069740759674
1.96349199999869,1.57716151647037
1.96923600000143,1.56366084126057
1.9750019999966,1.57876873970963
1.98070099999756,1.60609153477708
1.98602799999714,1.60094842041144
1.99112099999934,1.57941162900534
1.99688899999857,1.58455474337097
2.0026269999966,1.58391185407527
2.00824399999529,1.57812585041393
2.01404499999434,1.58134029689245
2.01913199999928,1.57973307365319
2.02491399999708,1.57330418069614
2.03061199999601,1.5601249501342
2.03631099999696,1.57844729506178
2.04174199999869,1.59226941491943
2.04688699999452,1.5749114039354
2.05261999999732,1.60641297942493
2.0583200000003,1.57458995928755
2.06414899999648,1.56783962168265
2.0693769999966,1.5884120791452
2.07497999999672,1.59741252928507
2.08089299999923,1.59451952745439
2.08633999999613,1.60062697576359
2.09224899999797,1.59194797027158
2.09748900000006,1.59934119717218
2.10240100000054,1.59162652562372
2.10808500000089,1.57909018435748
2.11383999999613,1.57555429323111
2.11933399999887,1.59869830787648
2.12524899999797,1.58551907731453
2.13025400000066,1.57394706999185
2.13598900000006,1.5951624167501
2.14152899999917,1.59644819534151
2.14699899999797,1.60159130970715
2.15236400000006,1.58551907731453
2.15790699999779,1.59226941491943
2.16357299999893,1.59612675069366
2.16991799999774,1.58969785773661
2.17591299999505,1.57555429323111
2.18206199999899,1.58712630055379
2.18770600000024,1.61477054026909
2.19271700000018,1.57266129140044
2.19882899999619,1.58551907731453
2.20442599999905,1.56301795196487
2.21002299999446,1.57394706999185
2.2163599999994,1.59837686322862
2.22185700000077,1.59966264182003
2.22729899999499,1.59162652562372
2.23341499999911,1.59066219168017
2.23904399999976,1.58905496844091
2.24468400000036,1.56333939661272
2.25026900000125,1.59484097210225
2.25520799999684,1.55048161069863
2.26197999999672,1.56944684492191
2.26736499999464,1.60994887055131
2.27303899999708,1.56944684492191
2.27892399999499,1.601912754355
2.2836799999997,1.60769875801634
2.28941600000113,1.60673442407278
2.29519399999827,1.57137551280903
2.30152299999446,1.60769875801634
2.30729699999839,1.6234495457611
2.31278499999642,1.5466242749244
2.31774399999529,1.48329967929749
2.32397399999946,1.58616196661023
2.32966099999845,1.64209333533654
2.33547100000083,1.65012945153285
2.34145300000161,1.54983872140292
2.34638199999928,1.41708208183991
2.3520719999969,1.59066219168017
2.35765799999982,1.60030553111574
2.36332499999553,1.62891410477459
2.36893800000101,1.71281115786405
2.37409200000018,1.55208883393789
2.37991799999774,1.57008973421762
2.38563899999857,1.52958770858822
2.39133299999684,1.6983461487107
2.39695499999821,1.71409693645546
2.40196999999881,1.70766804349842
2.40767899999768,1.59387663815869
2.41330099999905,1.6086630919599
2.41984699999541,1.53923104802379
2.42514299999923,1.57844729506178
2.4305339999944,1.57233984675258
2.43573299999535,1.6983461487107
2.44178700000048,1.6578441230813
2.4476799999997,1.55851772689493
2.45313300000131,1.68195247167023
2.45851999999583,1.84588924207492
2.46364499999583,1.84749646531418
2.46936699999869,2.03071991459001
2.47491899999976,1.88349826587364
2.48129100000113,1.53601660154527
2.48698399999738,1.4373330946546
2.49172999999672,1.31550557311857
2.49868599999696,1.31389834987931
2.5057519999966,1.42608253197977
2.51201399999857,1.28111099579837
2.51796999999881,1.59066219168017
2.52403499999642,1.63952177815372
2.53050899999589,1.54373127309373
2.53663699999452,1.50901525112567
2.54242799999565,1.29204011382535
2.54793599999696,1.41290330141783
2.55349099999666,1.41322474606568
2.55955599999428,1.35793626663508
2.56558199999481,1.41354619071353
2.57140199999511,1.49519313126802
2.57677600000054,1.49230012943735
2.58191699999571,1.60287708829856
2.58789499999583,1.48844279366313
2.59343299999833,1.53923104802379
2.59926799999922,1.67680935730459
2.60509899999946,1.66909468575614
2.60990599999577,1.34893581649521
2.61553899999708,1.22614396101562
2.6216799999997,1.42704686592333
2.62726999999583,1.51930147985695
2.63274199999869,1.43958320718957
2.63800899999589,1.37818727944978
2.64394599999487,1.43829742859816
2.64971599999815,1.43315431423252
2.65538300000131,1.44376198761165
2.66097399999946,1.46208433253923
2.66667300000042,1.4501908805687
2.67197299999744,1.47558500774903
2.67801599999517,1.52926626394037
2.68384699999541,1.52380170492688
2.68984499999881,1.41708208183991
2.69562999999523,1.65237956406781
2.70050599999726,1.84203190630069
2.70619900000095,1.61380620632553
2.71196099999547,1.5681610663305
2.71773200000077,1.7057393756113
2.72328700000048,1.57523284858325
2.72821599999815,1.71570415969472
2.73395300000161,1.77742153208237
2.73945899999887,1.72695472236956
2.74539400000125,1.92914340586867
2.75097199999541,1.90085627685767
2.75574099999666,1.90632083587116
2.76197800000012,1.6025556436507
2.7674450000003,1.5398739373195
2.7731799999997,1.7671353033511
2.77899799999595,1.73788384039653
2.78423999999464,1.52476603887044
2.78971099999547,1.43315431423252
2.79550800000131,1.4845854578889
2.8012839999944,1.51255114225205
2.80727099999785,1.37850872409763
2.81267799999565,1.37143694184488
2.81761299999803,1.47815656493185
2.82336599999666,1.79381520912284
2.82909099999815,1.50290780281648
2.83462099999934,1.63277144054882
2.83973799999803,1.59998408646788
2.84530900000036,1.38590195099823
2.85102399999648,1.34507848072099
2.85681300000101,1.21007172862301
2.86251999999583,1.11717422539368
2.86764999999851,1.53858815872809
2.87293599999696,1.43058275704971
2.87859600000083,1.63341432984453
2.88470799999684,1.67905946983956
2.89039099999517,1.51512269943487
2.89590100000054,1.20621439284878
2.9010549999997,1.31614846241428
2.90682800000161,1.38686628494179
2.91250800000131,1.32836335903266
2.9185,1.30843379086582
2.92397399999946,1.41901074972702
2.92896099999547,1.41868930507917
2.93472999999672,1.43894031789387
2.94030399999768,1.31293401593575
2.94623999999464,1.49776468845084
2.95232299999893,1.61637776350835
2.95750599999726,1.53280215506675
2.96349300000072,1.4643344450742
2.96935899999738,1.51351547619561
2.975,1.60287708829856
2.98074599999934,1.5533746125293
2.98653000000119,1.48812134901527
2.99140199999511,1.58616196661023
2.99720499999821,1.678095135896
3.00282999999821,1.66073712491198
3.00881399999559,1.67263057688251
3.01410599999875,1.68741703068372
3.01920499999821,1.77292130701244
3.02513899999857,1.75202740490204
3.03069099999964,1.69963192730211
3.03613199999928,1.66941613040399
3.04195499999821,1.68516691814875
3.04792199999839,1.69448881293647
3.05378000000119,1.75395607278915
3.05992199999839,1.77420708560385
3.06620699999481,1.75492040673271
3.07253499999642,1.77067119447747
3.07839799999446,1.78417186968727
3.08369399999827,1.76520663546398
3.08924300000072,1.74559851194499
3.09512200000137,1.73691950645298
3.10073900000006,1.78385042503942
3.10678599999845,1.81374477728968
3.1123049999997,1.70188203983707
3.11737200000137,1.70091770589352
3.12359299999475,1.77163552842103
3.12972500000149,1.73306217067875
3.13557699999958,1.76263507828116
3.1413200000003,1.70284637378063
3.14683799999952,1.74977729236707
3.15317599999905,1.81342333264183
3.15810300000012,1.78931498405291
3.16373699999601,1.89732038573129
3.1696799999997,1.82403100602096
3.17543899999559,1.83431723475223
3.18111199999601,1.8095659968676
3.18627899999917,1.8439605741878
3.19193499999493,1.84653213137062
3.19753899999708,1.99246800149558
3.20348099999875,1.88253393193008
3.20900299999863,1.93750096671283
3.21438199999928,1.91114250558894
3.22028099999577,1.7536346281413
3.22622299999744,1.57137551280903
3.23234499999881,2.07025760627585
3.23852799999714,1.63502155308379
3.24429800000042,1.5337664890103
3.24912999999523,1.51512269943487
3.25498900000006,1.80345854855841
3.26054299999773,1.82017367024673
3.26628499999642,1.50965814042138
3.27166200000048,1.52412314957473
3.2769450000003,1.51672992267413
3.28274199999869,1.76295652292902
3.28821400000155,1.60159130970715
3.29424300000072,1.3679010507185
3.2994619999975,1.47751367563615
3.30446299999952,1.46240577718709
3.31031099999696,1.50355069211219
3.31576199999452,1.23739452369045
3.32233299999684,1.21296473045368
3.3283769999966,1.42415386409266
3.33378999999911,1.62184232252184
3.33885199999809,1.4366902053589
3.34466699999571,1.1676410351065
3.35036400000006,1.25635975791374
3.35615299999714,1.47526356310118
3.36156599999964,1.17664148524636
3.36654999999702,1.27307487960206
3.37214599999785,1.34379270212958
3.37769200000167,1.48490690253675
3.38368599999696,1.23900174692972
3.38906300000101,1.31904146424495
3.39397699999809,1.27500354748918
3.39963599999994,1.21682206622791
3.4052650000006,1.36918682930991
3.41095899999887,1.3132554605836
3.41603199999779,1.2714676563628
3.42161499999464,1.12842478806851
3.42725899999589,1.25925275974441
3.4333539999947,1.32836335903266
3.43888199999928,1.29429022636032
3.44411800000072,1.32772046973696
3.4495169999972,1.40068840479944
3.45538199999928,1.36372227029642
3.46118999999762,1.429939867754
3.46671099999547,1.48619268112816
3.47195300000161,1.56623239844339
3.47722399999946,1.57169695745688
3.4827119999975,1.54405271774158
3.48846299999952,1.48619268112816
3.49434799999744,1.5331235997146
3.49938799999654,1.5742685146397
3.50521499999613,1.62152087787399
3.5111799999997,1.75170596025418
3.51710499999672,1.6854883627966
3.52332599999756,1.62762832618318
3.52961599999666,1.65559401054634
3.53539799999446,1.70734659885056
3.54027899999917,1.68580980744446
3.54612200000137,1.70477504166774
3.55172100000083,1.73691950645298
3.55726900000125,1.75620618532412
3.56287900000066,1.74366984405788
3.56779399999976,1.73113350279164
3.57366699999571,1.71281115786405
3.57928599999845,1.73016916884808
3.58511499999464,1.75202740490204
3.59072599999607,1.83753168123076
3.59557299999893,1.83206712221727
3.60137799999863,1.63309288519667
3.60713599999994,1.71859716152539
3.61265799999982,1.75942063180264
3.61825499999523,1.75813485321123
3.62314400000125,1.76199218898546
3.62898099999875,1.73756239574868
3.63487999999523,1.76327796757687
3.64053299999982,1.76617096940754
3.64595099999756,1.79606532165781
3.65107599999756,1.69063147716224
3.65665699999779,1.70734659885056
3.66226399999857,1.68163102702238
3.6681039999947,1.75170596025418
3.67324099999666,1.74913440307137
3.67865100000054,1.80410143785411
3.68429199999571,1.89057004812639
3.68997199999541,1.80988744151546
3.6960150000006,1.76906397123821
3.70156499999762,1.63727166561875
3.70675099999458,1.83174567756942
3.71294299999624,1.66652312857332
3.71852799999714,1.6234495457611
3.72442700000107,1.7880292054615
3.73005399999768,1.59259085956728
3.73475099999458,1.83399579010438
3.74044099999964,1.90439216798404
3.74615999999642,1.66138001420768
3.7521269999966,1.54244549450232
3.75856300000101,1.7327407260309
3.76682899999619,1.50708658323856
3.77183100000024,1.45436966099078
3.77746000000089,1.53698093548883
3.78300999999791,1.66234434815124
3.78953099999577,1.68741703068372
3.79498200000078,1.28786133340327
3.8005719999969,1.4501908805687
3.80593599999696,1.40840307634789
3.81090299999714,1.57169695745688
3.81662099999934,1.65495112125063
3.82219099999964,1.17342703876784
3.82773399999738,1.10078054835321
3.83333399999887,1.33447080734186
3.83870300000161,1.29525456030387
3.84449099999666,1.55626761435997
3.85018599999696,1.29332589241676
3.85610499999672,1.45051232521655
3.86195099999756,1.53505226760171
3.86759399999678,1.31389834987931
3.87309699999541,1.27403921354562
3.87876999999583,1.39329517789884
3.88456700000167,1.33929247705964
3.89011299999803,1.13871101679979
3.89510099999607,1.28464688692475
3.90121499999613,1.34282836818602
3.90716899999976,1.34154258959461
3.9128069999963,1.24414486129535
3.91845499999821,1.24864508636529
3.92392700000107,1.32097013213206
3.92938699999452,1.37368705437984
3.93519900000095,1.35890060057864
3.9407119999975,1.47815656493185
3.94650400000066,1.47269200591836
3.95193599999696,1.48876423831098
3.95685799999535,1.51608703337843
3.96266299999505,1.44697643409017
3.96818499999493,1.66202290350338
3.97383799999952,1.50355069211219
3.97945799999684,1.5742685146397
3.98438599999994,1.5398739373195
3.99022399999946,1.54887438745936
3.99617700000107,1.60898453660775
4.00179699999839,1.59612675069366
4.00750299999863,1.61059175984701
4.01240399999917,1.58584052196238
4.01846599999815,1.63566444237949
4.02421599999815,1.63887888885802
4.03002199999988,1.60159130970715
4.03568099999428,1.64659356040647
4.04068699999899,1.72406172053888
4.04637299999595,1.65398678730708
4.05191999999434,1.61862787604332
4.05767499999702,1.68452402885305
4.06301599999517,1.6915958111058
4.06797999999672,1.73884817434009
4.07368999999762,1.76552808011184
4.07915100000054,1.73466939391801
4.08538799999654,1.66620168392546
4.09086899999529,1.73113350279164
4.09589099999517,1.74881295842351
4.10178599999845,1.69802470406285
4.10734399999678,1.65462967660278
4.11322800000012,1.70252492913278
4.11916999999434,1.68902425392298
4.12398699999601,1.66588023927761
4.13005599999428,1.73434794927016
4.13592199999839,1.75749196391553
4.14186199999601,1.83688879193505
4.14799799999595,1.81470911123324
4.15322800000012,1.68838136462728
4.15813599999994,1.61380620632553
4.16427099999785,1.67938091448741
4.1703900000006,1.76874252659036
4.17609899999946,1.79027931799646
4.18172199999541,1.71441838110331
4.18655099999905,1.74366984405788
4.19207599999756,1.61830643139547
4.19782099999487,1.68388113955734
4.20366499999911,1.66555879462976
4.20935499999672,1.55658905900782
4.21439499999583,1.70991815603338
4.22014099999517,1.77838586602593
4.22580399999768,1.79220798588358
4.23160499999672,1.86292580841109
4.2372669999972,1.78610053757438
4.24286699999869,1.75781340856338
4.24813599999994,1.74463417800143
4.25375699999928,1.62184232252184
4.26004399999976,1.58198318618815
4.26578899999708,1.74366984405788
4.27111299999803,1.53151637647534
4.276125,1.59034074703231
4.28195399999619,1.65302245336352
4.28755999999493,1.66652312857332
4.29334799999744,1.30875523551367
4.29895799999684,1.53023059788393
4.30418599999696,1.8918558267178
4.30985199999809,1.56976828956977
4.31529199999571,1.73241928138305
4.32095799999684,1.52219448168762
4.32639299999922,1.37754439015407
4.33147299999744,1.50901525112567
4.33708299999684,1.6160563188605
4.34268999999762,1.4360473160632
4.34823900000006,1.38911639747676
4.35319399999827,1.34925726114307
4.35874199999869,1.45404821634293
4.36410499999672,1.55594616971212
4.36986999999732,1.28882566734683
4.3753919999972,1.32514891255414
4.38027699999511,1.35150737367803
4.38602199999988,1.39425951184239
4.39161800000072,1.29718322819099
4.39730900000036,1.32707758044126
4.40238499999791,1.19046360510401
4.40758500000089,1.40840307634789
4.41332800000161,1.39458095649024
4.41900099999458,1.34732859325595
4.42454800000042,1.23803741298616
4.42973200000077,1.13774668285623
4.43558399999887,1.26986043312354
4.44180299999565,1.48812134901527
4.44868699999899,1.37047260790132
4.45527899999917,1.26278865087079
4.46185000000149,1.34893581649521
4.46836800000071,1.36693671677494
4.475375,1.38847350818105
4.48204599999636,1.47654934169259
4.48866899999976,1.53344504436245
4.49643499999493,1.55176738929003
4.50346499999613,1.56719673238695
4.51046999999881,1.60802020266419
4.51705599999428,1.60544864548137
4.52572199999541,1.61894932069117
4.53222999999672,1.62827121547889
4.53951900000125,1.59226941491943
4.54599799999595,1.66041568026412
4.55281499999762,1.71506127039902
4.55978999999911,1.73209783673519
4.56613099999726,1.66491590533406
4.57336699999869,1.78224320180016
4.57994099999964,1.81856644700747
4.58633299999684,1.77484997489955
4.59242300000042,1.76070641039405
4.59836199999601,1.76520663546398
4.60577099999785,1.84781790996203
4.6111589999944,1.89089149277424
4.61890199999511,1.8507109117927
4.62615599999577,1.95710909023182
4.63313499999791,1.83431723475223
4.64103299999982,1.56237506266916
4.64687900000066,1.67970235913526
4.65293899999559,1.78995787334861
4.65884200000018,1.84685357601847
4.6668919999972,1.81824500235962
4.67316299999505,1.73820528504439
4.6794849999994,1.74591995659284
4.68573399999738,1.86678314418532
4.69202299999446,1.80731588433264
4.69915399999917,1.80924455221975
4.70530900000036,1.95485897769686
4.71188499999791,1.55787483759923
4.71819900000095,2.20172846724745
4.72429999999702,1.91821428784169
4.72922699999809,1.8089231075719
4.73440299999714,1.601912754355
4.73994399999827,1.75074162631063
4.74588199999928,1.76874252659036
4.75152600000054,1.84428201883566
4.75672399999946,1.6093059812556
4.76218499999493,1.7050964863156
4.7678900000006,1.81149466475472
4.77356199999899,1.90889239305397
4.77920799999684,1.47687078634044
4.78453199999779,1.55851772689493
4.78997699999809,1.68452402885305
4.79594299999625,1.54533849633299
4.80158100000024,1.66523734998191
4.80761199999601,1.71859716152539
4.81290799999982,1.54951727675507
4.81810899999738,1.54919583210722
4.82395099999756,1.49615746521158
4.82964999999851,1.56976828956977
4.83592700000107,1.61509198491694
4.84196499999613,1.50676513859071
4.84707999999821,1.38075883663259
4.85241499999911,1.44151187507669
4.85812399999797,1.5196229245048
4.86376599999517,1.72213305265177
4.86976900000125,1.37625861156266
4.87586800000072,1.19399949623039
4.8809619999975,1.36532949353568
4.88666200000048,1.51319403154776
4.89232099999487,1.34925726114307
4.89809799999744,1.31775568565354
4.90379399999976,1.50355069211219
4.90878799999505,1.40647440846078
4.91478499999642,1.23450152185978
4.92069299999624,1.29621889424743
4.92653299999982,1.38172317057615
4.9325150000006,1.36243649170501
4.93791399999708,1.17567715130281
4.94291799999773,1.28914711199468
4.94871999999881,1.41161752282642
4.95425499999523,1.5466242749244
4.95992899999768,1.53698093548883
4.96520099999756,1.61059175984701
4.97041799999773,1.47269200591836
4.97626999999583,1.48040667746682
4.98189299999922,1.4919786847895
4.9875019999966,1.49069290619809
4.99288199999928,1.58648341125809
4.99829299999774,1.63887888885802
5.00434399999678,1.5742685146397
5.01132800000161,1.62409243505681
5.0169619999975,1.61284187238198
5.02251599999517,1.59419808280654
5.02766299999505,1.65205811941996
5.03283599999547,1.7198829401168
5.03845300000161,1.61348476167768
5.04408900000155,1.64498633716721
5.04955099999905,1.63662877632305
5.05447599999607,1.73884817434009
5.06011199999601,1.57909018435748
5.06556899999827,1.58969785773661
5.07128700000048,1.70991815603338
5.07663599999994,1.75395607278915
5.08149899999797,1.7819217571523
5.08731399999559,1.89635605178773
5.09286100000143,1.78706487151794
5.09842499999702,1.62152087787399
5.10330399999768,1.7536346281413
5.10895099999756,1.80377999320626
5.11443599999696,1.77195697306888
5.12047599999607,1.7812788678566
5.12603999999911,1.72341883124318
5.13087299999595,1.6915958111058
5.13677299999446,1.72084727406036
5.14226999999583,1.76552808011184
5.14792300000042,1.63116421730956
5.15327299999446,1.75234884954989
5.15815199999511,1.74463417800143
5.16374899999797,1.70959671138553
5.16971000000089,1.72052582941251
5.17561499999464,1.7745285302517
5.18129299999774,1.77099263912532
5.18624599999934,1.71088248997694
5.19190399999917,1.68870280927513
5.19779899999499,1.68195247167023
5.20361599999666,1.74591995659284
5.20955200000107,1.71473982575117
5.21569399999827,1.74109828687506
5.22075,1.72952627955237
5.22674499999732,1.72374027589103
5.23241299999505,1.75749196391553
5.23847100000083,1.77870731067378
5.24465799999982,1.67841658054385
5.25037099999934,1.71698993828613
5.25561100000143,1.53955249267165
5.26189299999923,1.69609603617573
5.26770799999684,1.82145944883814
5.2738049999997,1.55916061619064
5.27989699999988,1.59001930238446
5.2857669999972,1.59291230421513
5.29060300000012,1.69513170223217
5.29650499999523,1.67648791265674
5.30213899999857,1.58616196661023
5.30790399999917,1.30425501044374
5.31334699999541,1.64209333533654
5.31812599999458,1.59162652562372
5.32397399999946,1.59484097210225
5.32940699999779,1.62441387970466
5.33491399999708,1.66330868209479
5.3404299999997,1.82210233813385
5.34527199999988,1.59194797027158
5.35073200000078,1.51672992267413
5.35648799999803,1.47237056127051
5.36195099999756,1.90921383770183
5.36672800000012,1.78610053757438
5.37224199999869,1.49519313126802
5.37784200000018,1.34572137001669
5.38353499999642,1.48876423831098
5.38871999999881,1.38108028128045
5.39396599999815,1.66105856955983
5.39959899999946,1.46111999859568
5.40538399999589,1.38300894916756
5.410875,1.33929247705964
5.41583500000089,1.64048611209728
5.42149599999934,1.59934119717218
5.42684799999744,1.21457195369294
5.43235599999875,1.5337664890103
5.43776900000125,1.50130057957722
5.44262299999595,1.61284187238198
5.44814699999988,1.4360473160632
5.4537669999972,1.26343154016649
5.45918099999428,1.10303066088818
5.46416299999505,1.32225591072347
5.46991399999708,1.39586673508165
5.47523099999875,1.40068840479944
5.48147399999946,1.23289429862052
5.48685199999809,1.3814017259283
5.49169799999893,1.46465588972205
5.49840599999577,1.41804641578346
5.50448200000077,1.32964913762407
5.51047599999607,1.37175838649273
5.51721899999678,1.50162202422507
5.52311599999666,1.49680035450729
5.52931899999827,1.54212404985446
5.53392399999499,1.56783962168265
5.53972100000083,1.55787483759923
5.54539499999583,1.57073262351332
5.5511799999997,1.62730688153533
5.55678299999982,1.57394706999185
5.56168899999559,1.60705586872064
5.56733299999684,1.69095292181009
5.57293599999696,1.59419808280654
5.57870699999481,1.73466939391801
5.5842669999972,1.76199218898546
5.58919900000095,1.6922387004015
5.59502899999917,1.70123915054137
5.6005,1.68259536096593
5.60631799999624,1.71827571687754
5.61204899999499,1.59162652562372
5.61703499999642,1.70284637378063
5.62414299999922,1.80506577179767
5.62974300000072,1.79027931799646
5.63521400000155,1.79927976813633
5.6408769999966,1.76520663546398
5.64620699999481,1.76231363363331
5.65117199999839,1.78417186968727
5.65716299999505,1.75877774250694
5.66270199999958,1.8156734451768
5.6686799999997,1.87706937291659
5.67397100000083,1.81792355771177
5.67900400000066,1.74238406546647
5.68498900000006,1.72888339025667
5.69061800000072,1.80088699137559
5.69632999999821,1.65977279096842
5.70163499999791,1.82499533996452
5.70668099999428,1.83978179376572
5.71223099999875,1.83206712221727
5.71792599999905,1.81535200052895
5.72353799999505,1.77259986236459
5.72863099999726,1.76199218898546
5.73418999999762,1.79445809841854
5.73992300000042,1.8359244579915
5.74560499999672,1.82370956137311
5.75128499999642,1.68034524843097
5.75630599999428,1.75524185138056
5.76195099999756,1.81278044334613
5.76757499999553,1.85488969221478
5.77327499999851,1.83785312587861
5.77895699999481,1.82595967390807
5.78421499999613,1.6842025842052
5.78967199999839,1.78288609109586
5.79523099999875,1.74817006912781
5.80098200000077,1.73145494743949
5.80658500000089,1.75652762997197
5.8114849999994,1.75009873701492
5.81713399999589,1.73627661715727
5.82247800000012,1.78706487151794
5.82844999999553,1.8918558267178
5.83372699999809,1.8365673472872
5.83866699999571,1.71859716152539
5.84439599999785,1.62666399223963
5.85013599999994,1.74881295842351
5.85630399999768,1.63823599956231
5.86242499999702,1.70477504166774
5.86841499999911,1.81792355771177
5.87337200000137,1.63052132801386
5.87926799999923,1.66234434815124
5.88512599999458,1.62473532435251
5.89088199999928,1.76327796757687
5.89682400000095,1.68066669307882
5.90246099999547,1.74302695476217
5.90802600000054,1.76070641039405
5.91392199999839,1.57844729506178
5.91960499999672,1.84106757235713
5.92520699999481,1.71956149546895
5.93075800000131,1.97639576910296
5.93571299999952,1.68677414138801
5.94142099999636,1.51672992267413
5.94731199999899,1.66684457322117
5.95315699999779,1.45244099310366
5.9587349999994,1.48619268112816
5.96395699999481,1.73595517250942
5.96984200000018,1.89057004812639
5.97549799999595,1.84138901700499
5.98171099999547,1.67391635547392
5.98775800000131,1.4913357954938
5.99329299999773,1.33125636086334
5.99844299999624,1.45340532704722
6.00413599999994,1.52605181746185
6.00991499999911,1.57458995928755
6.01544200000167,1.45115521451226
6.02051199999452,1.66780890716473
6.02618699999899,1.3672581614228
6.03191999999434,1.8224237827817
6.03756799999625,1.55048161069863
6.04381199999899,1.54340982844587
6.04908999999613,1.42576108733192
6.0540339999944,1.50387213676004
6.06020699999481,1.46111999859568
6.06567799999565,1.40486718522152
6.07133199999481,1.53473082295386
6.07678700000048,1.57233984675258
6.0817519999966,1.47815656493185
6.08749300000072,1.42576108733192
6.09325,1.27243199030636
6.09903999999911,1.68613125209231
6.10446899999678,1.55723194830352
6.10949899999797,1.25860987044871
6.11529999999702,1.6842025842052
6.12093699999899,1.59612675069366
6.12690299999714,1.52123014774406
6.1323049999997,1.41483196930494
6.13726199999452,1.44697643409017
6.14310199999809,1.57073262351332
6.1486799999997,1.60544864548137
6.15412599999458,1.60448431153782
6.15930599999428,1.50676513859071
6.16455599999428,1.61477054026909
6.17021099999547,1.6369502209709
6.17586400000006,1.66877324110828
6.18135799999535,1.74656284588855
6.18626799999922,1.75877774250694
6.1923369999975,1.72888339025667
6.20611699999869,1.75909918715479
6.21140399999917,1.71602560434258
6.21726900000125,1.73241928138305
6.22237799999863,1.773885640956
6.22783999999613,1.78160031250445
6.23439400000125,1.93525085417787
6.24028299999982,1.88928426953498
6.24611100000143,1.79799398954492
6.25194900000095,1.78610053757438
6.25708599999547,1.8574612493976
6.26261999999732,1.85488969221478
6.26923099999875,1.88735560164787
6.2751950000003,1.94971586333122
6.28142099999636,1.974145656568
6.28841200000048,1.90021338756196
6.29479999999702,1.81985222559888
6.30052399999648,1.8703190353117
6.3053599999994,1.87256914784666
6.31148699999601,1.91242828418035
6.31697599999607,1.93782241136068
6.32246999999881,1.94328697037417
6.32830999999493,1.85263957967982
6.33359399999678,1.97446710121585
6.33856399999559,2.05289959529182
6.3443219999969,1.9121068395325
6.34995899999887,1.86453303165035
6.35578700000048,1.79702965560136
6.36168800000101,1.80281565926271
6.36653999999911,2.03939892008202
6.37216399999708,1.88831993559143
6.37759799999744,1.96996687614592
6.38297999999672,1.95968064741464
6.38827299999446,1.92464318079874
6.39367199999839,1.91371406277176
6.39928499999642,1.88478404446505
6.40535199999809,1.93171496305149
6.41144099999964,2.00725445529679
6.41783799999952,1.95357319910545
6.42514799999446,2.01304045895813
6.43183599999547,1.86935470136814
6.43776299999654,1.98539621924283
6.44493400000036,1.94264408107847
6.45152799999714,1.86260436376324
6.45945899999887,1.88414115516935
6.46638399999589,2.06479304726236
6.47456199999899,1.87867659615586
6.48098099999875,1.79895832348848
6.48823099999875,2.03875603078632
6.49744900000095,1.88799849094357
6.51642199999839,2.02396957698511
6.52577199999988,1.92046440037666
6.53253000000119,1.66748746251687
6.5390549999997,1.63470010843594
6.54539499999583,1.5466242749244
6.55223699999601,1.8716048139031
6.55861400000006,1.88060526404297
6.56480099999905,1.77356419630814
6.57114499999583,1.85778269404545
6.57858500000089,1.85328246897552
6.58513199999928,1.71056104532909
6.59170799999684,1.63405721914023
6.59724199999869,1.69513170223217
6.6031419999972,1.85842558334116
6.60981399999559,1.55883917154279
6.61642499999702,1.72084727406036
6.62351799999923,1.56205361802131
6.62989699999988,1.8568183601019
6.63673699999601,1.74720573518425
6.64370399999618,1.61637776350835
6.65061699999869,1.64273622463224
6.65768400000036,1.46947755943984
6.66418999999762,1.60705586872064
6.67122199999541,1.79799398954492
6.67830299999565,1.69384592364077
6.68673299999535,1.66041568026412
6.69382400000095,1.67038046434755
6.70383900000155,1.63952177815372
6.71172500000149,1.71698993828613
6.7189849999994,1.68613125209231
6.72588599999994,1.69931048265425
6.73459399999678,1.80377999320626
6.74280399999768,1.80506577179767
6.7518900000006,1.75459896208486
6.76046799999475,1.7745285302517
6.76933599999547,1.77999308926519
6.77802499999851,1.80088699137559
6.78747100000083,1.82660256320378
6.7955,1.79670821095351
6.80303999999911,1.84653213137062
6.81062200000137,1.92142873432022
6.81806499999762,1.78963642870076
6.82702299999446,1.93621518812142
6.83490500000119,1.90985672699753
6.84228299999982,1.98411044065142
6.8515719999969,1.95293030980974
6.85884299999475,1.83496012404794
6.86618599999696,1.83174567756942
6.87385099999607,1.87417637108592
6.8820150000006,1.91917862178525
6.89039499999583,1.86742603348102
6.89788499999791,1.87224770319881
6.90556599999964,1.85938991728472
6.91281099999696,1.89024860347854
6.92070300000161,1.96032353671035
6.92781499999762,1.95550186699256
6.93530099999905,1.94875152938766
6.94121499999613,1.83528156869579
6.94808599999547,1.85906847263686
6.95465100000054,1.92207162361592
6.96113300000131,1.87739081756445
6.96839499999583,1.85392535827123
6.97445699999481,1.88542693376075
6.98111999999732,1.85135380108841
6.98766899999976,1.82788834179519
6.99470699999481,1.90085627685767
7.00179399999976,1.96964543149807
7.00752499999851,1.95710909023182
7.01661400000006,1.95164453121834
7.02290599999577,1.88671271235216
7.02966499999911,1.87899804080371
7.03721400000155,1.95357319910545
7.04449499999732,1.97639576910296
7.05075899999589,1.92400029150303
7.05746799999475,1.86742603348102
7.06411800000072,1.82595967390807
7.07164899999648,1.81278044334613
7.07786800000072,1.71891860617325
7.08588399999589,1.84621068672277
7.09245799999684,1.91789284319384
7.09874799999595,1.90310638939263
7.10472999999672,1.77742153208237
7.11130599999428,1.63727166561875
7.1171819999963,1.69352447899291
7.12409399999678,1.75588474067627
7.13054499999434,1.82403100602096
7.13698799999803,1.71216826856835
7.14370499999821,1.64241477998439
7.15180200000107,1.59226941491943
7.15821599999815,1.57169695745688
7.16475499999523,1.47912089887541
7.17195600000024,1.54308838379802
7.17863199999928,1.58326896477956
7.18545899999887,1.55080305534648
7.19263699999452,1.59194797027158
7.20000599999726,1.56880395562621
7.20625999999791,1.52605181746185
7.2130569999963,1.47365633986192
7.21960199999809,1.52380170492688
7.22731599999964,1.56398228590842
7.23422500000149,1.65687978913775
7.24263799999654,1.56783962168265
7.24872199999541,1.66073712491198
7.25557699999958,1.56173217337346
7.2630339999944,1.5681610663305
7.26986299999803,1.51158680830849
7.2773219999969,1.43476153747179
7.28406700000167,1.43797598395031
7.29079899999499,1.5681610663305
7.29819999999553,1.31872001959709
7.3049849999994,1.54019538196735
7.3117669999972,1.51930147985695
7.31885000000149,1.26085998298367
7.32698600000143,1.4643344450742
7.33379199999571,1.36179360240931
7.34124599999934,1.277575104672
7.34786800000072,1.40647440846078
7.35474899999797,1.53344504436245
7.36168999999762,1.4231895301491
7.36904499999434,1.38333039381541
7.37570799999684,1.34668570396025
7.38185099999607,1.35086448438233
7.38830799999833,1.37818727944978
7.3955019999966,1.44183331972454
7.40328000000119,1.51705136732198
7.40933599999547,1.55112449999433
7.41575699999929,1.5466242749244
7.42272299999744,1.55948206083849
7.42942199999839,1.59676963998936
7.43641099999845,1.62827121547889
7.44287099999934,1.73434794927016
7.44962599999458,1.7671353033511
7.45642099999636,1.78963642870076
7.46316899999976,1.81085177545901
7.47013499999791,1.85456824756693
7.47686899999529,1.83817457052646
7.48390500000119,1.92271451291163
7.48989699999988,1.90149916615337
7.4982349999994,1.89474882854847
7.50520199999958,1.93332218629075
7.51165299999714,1.93846530065639
7.51994799999893,1.99825400515692
7.52832999999821,1.9680382082588
7.53548399999738,1.96160931530176
7.54287399999797,2.01786212867592
7.55283199999481,2.01657635008451
7.55998099999875,1.96546665107599
7.56859799999744,1.96225220459746
7.57550800000131,1.98925355501706
7.58357699999958,2.02043368585873
7.59183199999481,2.11429552303161
7.60025299999863,2.05900704360101
7.60831099999696,2.002432785579
7.61489799999446,2.05097092740471
7.62237599999458,2.06479304726236
7.63106799999624,1.98571766389068
7.64141699999571,1.9876463317778
7.65095300000161,2.04872081486974
7.65732999999821,1.96675242966739
7.66579699999839,2.01496912684524
7.67350899999589,2.27630362554919
7.68275499999523,2.05289959529182
7.69227299999446,1.8635686977068
7.70050299999863,2.08375828148564
7.7091099999994,1.74238406546647
7.71874199999869,1.74206262081861
7.72529599999636,1.79927976813633
7.73306599999964,1.65077234082855
7.73962099999934,1.76520663546398
7.74613499999791,1.34829292719951
7.75256300000101,1.73756239574868
7.7591039999947,1.7401339529315
7.76614299999923,1.57458995928755
7.77317599999905,1.59837686322862
7.7809299999997,1.57041117886547
7.78919799999893,1.43122564634541
7.79609200000018,1.57684007182252
7.80358999999613,1.66748746251687
7.81091799999774,1.58455474337097
7.81867599999905,1.52315881563118
7.82639499999583,1.58809063449735
7.83267300000042,1.50676513859071
7.83968899999559,1.60094842041144
7.84877499999851,1.55723194830352
7.85506399999559,1.58069740759674
7.86138399999589,1.62730688153533
7.8678539999947,1.70702515420271
7.87505299999565,1.72213305265177
7.88123099999875,1.76231363363331
7.88846400000155,1.76327796757687
7.89498200000078,1.71538271504687
7.90157099999487,1.76809963729465
7.90815999999642,1.88253393193008
7.91451199999452,1.77935019996949
7.92090500000119,1.7610278550419
7.92715699999779,1.80442288250197
7.93416999999434,1.86742603348102
7.94167499999702,1.83721023658291
7.94820199999958,1.73241928138305
7.95529999999702,1.75202740490204
7.96195099999756,1.77195697306888
7.96984699999541,1.68677414138801
7.97543499999493,1.66909468575614
7.98224599999934,1.73306217067875
7.98936599999666,1.75556329602841
7.99611599999666,1.70348926307634
8.00253799999505,1.76938541588606
8.00895499999821,1.69031003251439
8.01531700000167,1.49776468845084
8.02221700000018,1.6295569940703
8.02903299999982,1.69738181476714
8.03622699999809,1.69288158969721
8.04315500000119,1.55916061619064
8.04922699999809,1.50676513859071
8.05547999999672,1.53633804619312
8.06323299999535,1.5607678394299
8.07034399999678,1.57587573787896
8.07737299999595,1.67166624293895
8.08346999999881,1.73113350279164
8.08952799999714,1.58230463083601
8.09662799999863,1.53633804619312
8.10293499999493,1.53794526943238
8.11030099999905,1.49776468845084
8.11705799999833,1.59676963998936
8.12367399999499,1.66555879462976
8.13042499999702,1.54115971591091
8.13717899999768,1.62666399223963
8.14406700000167,1.57523284858325
8.15105900000036,1.60062697576359
8.15728099999577,1.64852222829359
8.16314400000125,1.64627211575862
8.17011299999803,1.41033174423501
8.17792899999768,1.78770776081365
8.18474099999666,1.57298273604829
8.19138199999928,1.42158230690984
8.19773299999535,1.29268300312106
8.20504699999839,1.32964913762407
8.21137399999797,1.41772497113561
8.21806199999899,1.42126086226199
8.22485899999738,1.39329517789884
8.23168899999559,1.50580080464715
8.23869299999624,1.29589744959958
8.24547800000012,1.29268300312106
8.25263300000131,1.28111099579837
8.25933100000024,1.14642568834824
8.26660799999535,1.22646540566348
8.27347699999809,1.29429022636032
8.2803219999969,1.48297823464964
8.28722800000012,1.09017287497409
8.29382899999618,1.22550107171992
8.30048299999535,1.35857915593078
8.30668699999899,1.00627582188463
8.3138769999966,1.31968435354065
8.32000299999863,1.43058275704971
8.32535199999809,1.23321574326837
8.33174899999797,1.18628482468193
8.33796099999547,1.20396428031381
8.34415699999779,1.21810784481931
8.35058500000089,1.24928797566099
8.35708299999684,1.32707758044126
8.36307699999958,1.31036245875293
8.36849199999869,1.35761482198723
8.3734299999997,1.4373330946546
8.37940100000054,1.53730238013668
8.38490999999642,1.53344504436245
8.39134600000084,1.49069290619809
8.39717300000042,1.49647890985943
8.40240500000119,1.58584052196238
8.40825999999791,1.61219898308627
8.41455299999565,1.59226941491943
8.42024799999595,1.63212855125312
8.4261969999969,1.69416736828862
8.43232800000161,1.67005901969969
8.43806599999964,1.65945134632057
8.44358399999887,1.67295202153036
8.44957099999487,1.69288158969721
8.45587999999523,1.73016916884808
8.46166299999505,1.69513170223217
8.46784899999946,1.70541793096345
8.47337799999863,1.69063147716224
8.47938699999452,1.72727616701741
8.48497899999469,1.78610053757438
8.49114299999922,1.83174567756942
8.49953299999982,1.76327796757687
8.50601999999583,1.75106307095848
8.5125,1.76424230152043
8.51863599999994,1.79027931799646
8.52464599999785,1.80731588433264
8.53059200000018,1.83463867940009
8.53658599999547,1.8716048139031
8.5427119999975,1.8851054891129
8.54805399999768,1.85938991728472
8.55370600000024,1.77902875532163
8.55975499999523,1.75138451560633
8.56543899999559,1.77002830518177
8.57111100000143,1.82017367024673
8.57700899999589,1.69127436645795
8.58218499999493,1.71634704899043
8.58802499999851,1.78160031250445
8.59416200000048,1.76327796757687
8.60079699999839,1.71602560434258
8.60774099999666,1.69609603617573
8.61501900000125,1.75074162631063
8.62171000000089,1.74174117617076
8.62890599999577,1.66009423561627
8.63542700000107,1.75395607278915
8.64323699999601,1.73852672969224
8.6487519999966,1.5533746125293
8.65519099999964,1.50676513859071
8.66147699999809,1.64916511758929
8.66948299999535,1.80795877362834
8.67668299999833,1.62569965829607
8.68343899999559,1.70252492913278
8.69041799999773,1.84010323841358
8.69691200000048,1.54694571957225
8.7037650000006,1.66748746251687
8.71046700000018,1.59837686322862
8.71803499999642,1.38718772958964
8.7244089999944,1.77163552842103
8.7314619999975,1.6848454735009
8.73850099999458,1.39715251367306
8.74501199999452,1.60898453660775
8.75228199999779,1.2708247670671
8.75896099999547,1.38333039381541
8.76562900000066,1.16892681369791
8.77216200000048,1.72277594194748
8.77853799999505,1.45276243775152
8.7854089999944,1.53633804619312
8.79124199999869,1.46626311296131
8.79738099999726,1.36468660423998
8.80360599999875,1.4913357954938
8.81012299999595,1.58519763266668
8.81659200000018,1.45886988606071
8.8230719999969,1.24896653101314
8.8299849999994,1.45919133070856
8.83656700000167,1.32193446607562
8.84299700000137,1.46562022366561
8.84943599999696,1.56269650731701
8.85649199999869,1.48876423831098
8.8626819999963,1.46626311296131
8.86898299999535,1.54887438745936
8.87462999999523,1.5816617415403
8.88056399999559,1.54437416238943
8.88709600000083,1.55530328041641
8.89388099999726,1.62891410477459
8.89995199999958,1.7118468239205
8.90756700000167,1.69995337194996
8.91394299999624,1.72438316518674
8.92035799999535,1.76424230152043
8.9273200000003,1.8082802182762
8.93404100000113,1.84267479559639
8.94102600000054,1.95357319910545
8.94763899999857,1.97125265473733
8.95488399999589,1.95775197952753
8.96090500000119,1.9747885458637
8.96691299999505,2.01079034642316
8.97302699999511,1.98796777642565
8.97907999999821,2.00596867670538
8.9850150000006,2.04261336656054
8.99146999999881,2.05418537388323
8.99821499999613,2.00114700698759
9.00452099999785,2.09404451021692
9.01089599999785,2.09725895669544
9.01757899999619,2.10947385331383
9.0238539999947,2.0644716026145
9.02999499999732,1.95807342417538
9.03599700000137,1.98057454952504
9.04148799999803,2.09533028880833
9.0478069999963,2.10272351570893
9.05465199999511,2.10208062641323
9.06312999999523,2.2020499118953
9.06838799999654,2.05418537388323
9.0749089999944,1.86549736559391
9.08117399999499,1.87321203714237
9.08758799999952,1.79767254489707
9.09427399999648,2.06543593655806
9.10129299999774,2.03071991459001
9.10790399999916,1.8716048139031
9.1145700000003,1.89024860347854
9.12132899999619,1.926250404038
9.12812399999797,1.95228742051404
9.13460099999607,1.95582331164042
9.14087599999458,1.99053933360847
9.14755099999905,1.91853573248954
9.15463899999857,1.92753618262941
9.16158199999481,1.9323578523472
9.16795699999481,1.8433176848921
9.17426199999452,1.81953078095103
9.18061499999463,1.87256914784666
9.18894599999487,1.82885267573874
9.19580399999768,1.99343233543914
9.20251299999654,1.82113800419029
9.20936299999803,1.6848454735009
9.21618199999631,1.70413215237204
9.22266999999434,1.84460346348351
9.22857400000095,1.99664678191766
9.23668199999631,1.67263057688251
9.24339599999785,1.897963275027
9.25092300000042,1.96225220459746
9.2576269999966,1.79831543419277
9.26307800000161,1.64241477998439
9.26998900000006,1.7603849657462
9.27644099999964,1.74913440307137
9.28383399999887,1.67680935730459
9.29042599999905,1.90021338756196
9.29701999999583,1.61059175984701
9.30342799999565,1.62505676900037
9.31099799999595,1.649808006885
9.31739699999988,1.47237056127051
9.32379800000042,1.36565093818353
9.33011999999732,1.51930147985695
9.33722999999672,1.74463417800143
9.34379800000042,1.50001480098581
9.34997100000083,1.44086898578098
9.35725400000065,1.50580080464715
9.36395899999887,1.41901074972702
9.37073999999464,1.37818727944978
9.37649199999869,1.43765453930246
9.38483399999887,1.4575841074693
9.39205900000036,1.53601660154527
9.39880299999565,1.52283737098332
9.40607299999893,1.477835120284
9.41295300000161,1.4980861330987
9.41998999999464,1.5681610663305
9.4265019999966,1.53119493182749
9.43358900000155,1.57008973421762
9.44014799999446,1.58519763266668
9.44680200000107,1.61123464914272
9.45357999999821,1.63277144054882
9.46016899999976,1.6221637671697
9.46757599999756,1.65912990167271
9.47440199999511,1.66041568026412
9.48117700000107,1.73113350279164
9.48776999999583,1.78706487151794
9.49418400000036,1.57555429323111
9.50282400000095,1.69063147716224
9.50936699999869,1.72695472236956
9.51700999999791,1.76488519081613
9.5233919999972,1.73563372786157
9.5303599999994,1.75202740490204
9.53607800000161,1.71088248997694
9.54223799999803,1.71763282758184
9.54735599999875,1.76424230152043
9.55328099999577,1.78417186968727
9.55935000000149,1.81856644700747
9.56595499999821,1.70638226490701
9.5735869999975,1.72277594194748
9.58084200000018,1.73595517250942
9.58921799999476,1.71313260251191
9.59574700000137,1.75974207645049
9.60245300000161,1.75749196391553
9.6093200000003,1.75009873701492
9.6165719999969,1.74109828687506
9.62375699999929,1.75170596025418
9.63071700000018,1.7610278550419
9.63793400000036,1.78095742320875
9.64477499999851,1.79767254489707
9.65194200000167,1.77324275166029
9.65927199999988,1.84363912953995
9.66750299999863,1.6989890380064
9.67347399999946,1.80603010574123
9.68043899999559,1.83045989897801
9.68727299999446,1.85617547080619
9.69346000000089,1.69416736828862
9.70021999999881,1.65977279096842
9.70683299999684,1.83817457052646
9.71385499999672,1.80377999320626
9.72025400000066,1.85842558334116
9.72666699999571,1.71441838110331
9.73321299999952,1.80699443968479
9.73962900000066,1.75524185138056
9.74720199999958,1.78995787334861
9.75444999999553,1.97671721375082
9.76167799999565,1.74913440307137
9.76867399999499,1.58680485590594
9.77513499999791,1.70156059518922
9.78160000000149,2.17279844894074
9.78840999999642,1.58809063449735
9.79541299999505,1.64273622463224
9.80183199999481,1.66105856955983
9.80841200000048,1.42061797296628
9.81499199999869,1.52251592633547
9.82161899999529,1.40872452099575
9.82822399999946,1.8716048139031
9.83455699999631,1.40776018705219
9.84139299999923,1.1271390094771
9.84825499999523,1.51930147985695
9.85466099999845,1.4440834322595
9.86035300000012,1.26150287227938
9.8663219999969,1.47237056127051
9.87360899999738,1.3396139217075
9.88042700000107,1.35986493452219
9.88736800000071,1.30746945692226
9.8937839999944,1.34186403424246
9.90024899999797,1.08149386948207
9.90700899999589,1.4225466408534
9.91418599999696,1.45469110563863
9.92061999999732,1.40390285127796
9.92712399999797,1.43090420169756
9.9338900000006,1.45790555211715
9.94014999999851,1.50258635816863
9.94637299999595,1.52926626394037
9.95290399999917,1.52026581380051
9.95959600000083,1.5742685146397
9.96617899999768,1.63180710660527
9.97328899999708,1.59676963998936
9.97988300000131,1.64466489251936
9.98588799999654,1.60898453660775
9.99191799999774,1.62762832618318
9.99876199999452,1.65623689984204
10.0043269999996,1.75684907461982
10.0102250000015,1.649808006885
10.0163779999986,1.78256464644801
10.0219769999981,1.72213305265177
10.027310999997,1.73627661715727
10.0327540000007,1.79863687884063
10.0384309999943,1.86485447629821
10.0444299999997,1.73884817434009
10.0505590000004,1.73016916884808
10.056673999995,1.75781340856338
10.0620960000008,1.76906397123821
10.0676369999945,1.77067119447747
10.0737870000005,1.77581430884311
10.0804509999976,1.75588474067627
10.0864050000012,1.79156509658787
10.0934389999956,1.77838586602593
10.0996449999958,1.83978179376572
10.1054729999974,1.75009873701492
10.1106330000013,1.80281565926271
10.1164349999949,1.80345854855841
10.1229120000005,1.75652762997197
10.1292060000002,1.8156734451768
10.1352980000004,1.76392085687257
10.1415169999972,1.7192400508211
10.1476510000005,1.83013845433015
10.1535059999973,1.74270551011432
10.1586819999963,1.71859716152539
10.1646379999965,1.71763282758184
10.1705119999945,1.71731138293399
10.1766059999987,1.68227391631808
10.1829479999989,1.76295652292902
10.1893949999958,1.64787933899788
10.1951609999984,1.67263057688251
10.2004919999987,1.7536346281413
10.2067189999968,1.64659356040647
10.2128689999953,1.69995337194996
10.2200850000009,1.84460346348351
10.2255049999952,1.72759761166526
10.2314010000005,1.73016916884808
10.2372639999986,1.75781340856338
10.242188000001,1.78224320180016
10.2479789999947,1.69866759335855
10.2540520000011,1.96932398685021
10.2602009999976,1.78674342687009
10.266673999995,1.71666849363828
10.2733299999982,1.63212855125312
10.2807509999946,1.45115521451226
10.2874539999962,1.77549286419526
10.2941400000006,1.42126086226199
10.3009069999978,1.45790555211715
10.3083269999996,1.6578441230813
10.3151959999949,1.5675181770348
10.3223759999946,1.5681610663305
10.3288949999958,1.73756239574868
10.3355099999979,1.44086898578098
10.3420209999979,1.31293401593575
10.3486920000017,1.353757486213
10.3546469999999,1.11363833426731
10.3605260000005,1.50740802788641
10.3672210000008,1.40068840479944
10.3739670000002,1.26953898847569
10.3808979999945,1.37818727944978
10.3873830000013,1.44119043042883
10.3943549999967,1.33800669846823
10.4013839999959,1.33607803058112
10.4080139999986,1.3470071486081
10.4150379999951,1.33929247705964
10.4220139999986,1.33929247705964
10.428748999998,1.4231895301491
10.435623999998,1.43122564634541
10.4423940000013,1.43186853564112
10.4499429999962,1.41129607817857
10.4560080000013,1.52155159239192
10.4617659999952,1.50001480098581
10.4689759999961,1.51383692084346
10.4757969999984,1.59323374886299
10.482236999996,1.54019538196735
10.4889439999983,1.53633804619312
10.4960209999979,1.55948206083849
10.5028769999966,1.60159130970715
10.5098859999999,1.68355969490949
10.5170179999992,1.68452402885305
10.5248020000011,1.6572012337856
10.5320789999962,1.61444909562124
10.5383799999952,1.70445359701989
10.5449299999997,1.73081205814378
10.5515040000007,1.78481475898298
10.5577719999999,1.77227841771673
10.5643720000014,1.66813035181258
10.5710819999948,1.67713080195244
10.5790169999972,1.68259536096593
10.5855469999984,1.71666849363828
10.5923979999945,1.70766804349842
10.5999149999991,1.7057393756113
10.6069120000005,1.68163102702238
10.6142619999945,1.85392535827123
10.6220229999945,1.72309738659533
10.6281319999993,1.71859716152539
10.6367439999953,1.63277144054882
10.6429039999992,1.67038046434755
10.6489139999971,1.58455474337097
10.6567409999967,1.72374027589103
10.6623989999965,1.78095742320875
10.6694160000011,1.63534299773164
10.6761779999956,1.70381070772419
10.6828579999954,1.71120393462479
10.6895099999979,1.6713447982911
10.6970920000002,1.64723644970218
10.7034659999982,1.6922387004015
10.7099560000002,1.71731138293399
10.7169679999948,1.62987843871815
10.723324000001,1.61187753843842
10.7296550000012,1.72181160800392
10.7350520000011,1.59837686322862
10.7409089999944,1.52958770858822
10.746611999996,1.59066219168017
10.7537779999971,1.45436966099078
10.7592910000011,1.37336560973199
10.7648610000014,1.48779990436742
10.769674999997,1.76359941222472
10.7753640000001,1.33832814311609
10.7810599999949,1.52058725844836
10.7868570000008,1.41483196930494
10.7923999999985,0.997275371744763
10.7975449999943,1.17053403693717
10.803373999998,1.58198318618815
10.8091299999952,1.57555429323111
10.8151400000006,1.19207082834328
10.8207069999948,1.60351997759426
10.8259050000012,1.31068390340079
10.8313249999955,1.12681756482925
10.8370989999995,1.37658005621051
10.8428799999952,1.44665498944232
10.8484179999977,1.47365633986192
10.8533460000008,1.25603831326589
10.8589459999949,1.41997508367058
10.8649839999974,1.2094288393273
10.8706400000006,1.33061347156763
10.8767589999959,1.32097013213206
10.8822839999944,1.23096563073341
10.8875419999957,1.37947305804119
10.8934219999984,1.30104056396522
10.8991309999973,1.25860987044871
10.9052699999958,1.26150287227938
10.9112479999959,1.24735930777388
10.916550999999,1.30875523551367
10.9230349999964,1.37240127578843
10.9286469999999,1.41193896747427
10.9342699999958,1.44890510197729
10.9400349999964,1.44858365732944
10.9456229999959,1.40583151916508
10.9507980000004,1.47044189338339
10.9563029999956,1.47912089887541
10.9619509999976,1.47204911662266
10.9677569999993,1.53762382478453
10.9734619999975,1.52926626394037
10.9786579999998,1.59419808280654
10.9845639999956,1.65109378547641
10.9906920000017,1.61059175984701
10.996375,1.62248521181755
11.0022540000007,1.63566444237949
11.0077910000011,1.5958053060458
11.0130520000011,1.61991365463473
11.0186489999965,1.66555879462976
11.0242760000005,1.68998858786654
11.0306369999945,1.69641748082358
11.0362779999971,1.72824050096096
11.041673999995,1.7812788678566
11.0467849999964,1.72374027589103
11.0525389999971,1.67616646800889
11.0582339999974,1.72888339025667
11.0637939999998,1.76745674799895
11.068810999997,1.75170596025418
11.0744959999993,1.73691950645298
11.0804839999974,1.66041568026412
11.0859729999974,1.67455924476963
11.0916840000004,1.65687978913775
11.0968640000001,1.72116871870821
11.1022690000013,1.83463867940009
11.1082479999959,1.76327796757687
11.1138769999966,1.71891860617325
11.1195379999951,1.7124897132162
11.1253359999955,1.72438316518674
11.1302919999957,1.70863237744197
11.1359409999996,1.68902425392298
11.1416229999959,1.68034524843097
11.1473149999976,1.67584502336103
11.152799999997,1.72791905631311
11.1578720000014,1.69384592364077
11.1636059999987,1.74141973152291
11.1693680000007,1.65752267843345
11.1749149999991,1.64659356040647
11.1800879999995,1.70188203983707
11.1855559999943,1.91339261812391
11.1912399999946,1.8918558267178
11.1970059999973,1.68741703068372
11.2034769999981,1.61059175984701
11.2092089999989,1.83142423292156
11.2143020000011,1.58134029689245
11.2201339999959,1.64016466744943
11.2257360000014,1.87867659615586
11.231498999998,1.61348476167768
11.2369970000014,1.76456374616828
11.2420689999983,1.69320303434506
11.2478759999946,1.52958770858822
11.2534459999949,1.4710847826791
11.2592729999945,1.40293851733441
11.2659649999961,1.46787033620058
11.2717650000006,1.46658455760917
11.2767779999971,1.62152087787399
11.2825359999984,1.28753988875542
11.2882299999967,1.51576558873057
11.2947049999982,1.46787033620058
11.3003189999983,1.28850422269898
11.3055700000003,1.36211504705716
11.3107709999979,0.972845578507986
11.3164439999983,1.34732859325595
11.3220429999977,1.3672581614228
11.3275869999975,1.56333939661272
11.332699000001,1.39683106902521
11.3383420000002,1.24510919523891
11.3440080000013,1.29493311565602
11.3496849999949,1.29589744959958
11.3556550000012,1.24221619340824
11.3611070000008,1.2647173187579
11.3662819999978,1.30296923185233
11.3720979999974,1.24414486129535
11.3777559999973,1.26503876340576
11.383313000001,1.30361212114803
11.3889079999998,1.3672581614228
11.3939299999997,1.32386313396273
11.3996489999965,1.31164823734434
11.4053399999961,1.3752942776191
11.4108379999995,1.46240577718709
11.4157980000004,1.46529877901776
11.4215410000011,1.47654934169259
11.4271969999969,1.55819628224708
11.433074000001,1.58905496844091
11.4386609999985,1.58584052196238
11.4436449999958,1.57041117886547
11.4492949999943,1.57201840210473
11.4548869999945,1.58230463083601
11.4606429999992,1.6093059812556
11.466436999999,1.57008973421762
11.4713420000002,1.59001930238446
11.47725,1.65077234082855
11.483375,1.64112900139298
11.4889949999973,1.63502155308379
11.4954149999991,1.62634254759178
11.5022949999943,1.70927526673768
11.5091730000004,1.65623689984204
11.5162789999992,1.69448881293647
11.5218570000008,1.65977279096842
11.5281400000006,1.62762832618318
11.5331999999955,1.63887888885802
11.5388339999989,1.67391635547392
11.544674999997,1.68613125209231
11.5501649999991,1.64916511758929
11.5554469999969,1.63180710660527
11.5606929999962,1.69963192730211
11.5662739999965,1.71795427222969
11.5719309999943,1.71313260251191
11.577436999999,1.67198768758681
11.5823460000008,1.71859716152539
11.5881049999967,1.7536346281413
11.5939160000011,1.67648791265674
11.5996319999993,1.69609603617573
11.6052709999979,1.68934569857083
11.6102419999987,1.69802470406285
11.6158969999999,1.77484997489955
11.6216920000017,1.80377999320626
11.6273579999954,1.71827571687754
11.6329829999954,1.68966714321868
11.6384189999998,1.77645719813881
11.6438319999948,1.81470911123324
11.6496469999999,1.83849601517431
11.6556269999966,1.93107207375579
11.6611620000005,1.77484997489955
11.6665829999968,1.82210233813385
11.6715639999956,1.65109378547641
11.6770890000015,1.90471361263189
11.6832179999948,1.44215476437239
11.688673999995,1.47879945422756
11.6938570000008,1.81503055588109
11.6996779999956,1.59387663815869
11.7056829999983,1.52476603887044
11.7112269999981,1.91017817164538
11.7176209999993,1.57973307365319
11.7235819999948,1.05063518328825
11.7295080000013,1.4501908805687
11.7347519999966,1.5958053060458
11.7408709999993,1.4157963032485
11.7481730000004,1.25860987044871
11.7558069999963,1.20846450538374
11.7625419999957,1.42093941761414
11.7684899999946,1.34186403424246
11.774987999998,1.43411864817608
11.7810040000007,1.34507848072099
11.7870339999944,1.229679852142
11.7932949999943,1.12746045412496
11.7992170000002,1.36565093818353
11.804186999999,1.41451052465709
11.8101400000006,1.31454123917501
11.8156550000012,1.25539542397019
11.8215719999969,1.27178910101065
11.8273069999963,1.31036245875293
11.8321419999972,1.3126125712879
11.8382239999995,1.38943784212461
11.8439349999949,1.41065318888286
11.8496429999992,1.44633354479447
11.8556959999949,1.4096888549393
11.8609319999963,1.43283286958467
11.8660559999943,1.48104956676252
11.8721279999986,1.55112449999433
11.8776429999992,1.4980861330987
11.8832210000008,1.50387213676004
11.8885410000011,1.68870280927513
11.893949000001,1.72309738659533
11.8996840000004,1.59098363632802
11.9053289999962,1.64948656223714
11.9108439999968,1.66620168392546
11.9159970000014,1.63727166561875
11.9214670000002,1.61637776350835
11.9270979999974,1.72759761166526
11.9328819999993,1.64723644970218
11.938486999996,1.68645269674016
11.9434939999953,1.70027481659781
11.94925,1.69320303434506
11.9549739999995,1.64273622463224
11.960875,1.79863687884063
11.9663859999999,1.79895832348848
11.9714179999977,1.78449331433512
11.9771030000001,1.85360391362337
11.9827170000002,1.7880292054615
11.9884589999989,1.79317231982714
11.9942569999993,1.80345854855841
11.9990059999973,1.71891860617325
12.0048779999986,1.72181160800392
12.0107899999991,1.77935019996949
12.0164949999973,1.80410143785411
12.0220929999948,1.73370505997445
12.0276290000007,1.83367434545653
12.0328830000013,1.82563822926022
12.0387129999995,1.84717502066633
12.0443879999965,1.80731588433264
12.0498409999982,1.72277594194748
12.0552079999968,1.76584952475969
12.0608969999999,1.82853123109089
12.0665229999945,1.71056104532909
12.0722870000005,1.82788834179519
12.0778790000007,1.73113350279164
12.0832760000005,1.72149016335607
12.0886899999976,1.84588924207492
12.0945370000005,1.68613125209231
12.1000059999973,1.6983461487107
12.105674999997,1.83045989897801
12.1108779999986,1.80442288250197
12.1162179999948,1.80377999320626
12.1225539999977,1.66813035181258
12.1281709999964,1.99696822656551
12.1339759999961,1.64145044604084
12.1393869999945,1.42801119986689
12.1443489999995,1.41515341395279
12.150185999997,1.67230913223466
12.1556829999983,1.65398678730708
12.1613999999985,1.63309288519667
12.1666269999966,1.63116421730956
12.1715559999943,1.59451952745439
12.1773299999982,1.65173667477211
12.1834970000014,1.35954348987434
12.1890769999996,1.42511819803622
12.1943449999988,1.39779540296877
12.1993669999987,1.59644819534151
12.2050579999983,1.27886088326341
12.210861999996,1.18339182285126
12.216612999998,1.58134029689245
12.2216920000017,1.69481025758432
12.227123999998,1.32129157677991
12.232737999998,1.25603831326589
12.2383759999946,1.37143694184488
12.2440209999979,1.15574758313596
12.2489959999993,1.32289880001917
12.2548610000014,1.15928347426234
12.2605289999992,1.25507397932233
12.2661019999981,1.32129157677991
12.2715459999964,1.27050332241924
12.2773209999949,1.35954348987434
12.2826409999952,1.2438234166475
12.2882760000005,1.27950377255911
12.2940689999983,1.17535570665495
12.2994569999948,1.23000129678985
12.3043859999999,1.24414486129535
12.3104499999955,1.27114621171495
12.3160929999948,1.29814756213455
12.3217589999959,1.32836335903266
12.3272639999986,1.32257735537132
12.332185999997,1.28143244044622
12.3378830000013,1.3679010507185
12.3434809999987,1.51512269943487
12.3491199999973,1.59805541858077
12.3544759999961,1.54791005351581
12.3593849999979,1.5189800352091
12.3650549999997,1.46915611479199
12.3708379999995,1.46819178084843
12.376324000001,1.64852222829359
12.3814139999971,1.60962742590345
12.3868599999994,1.49358590802876
12.3923830000013,1.52830192999681
12.3980639999956,1.59259085956728
12.4036229999959,1.61187753843842
12.408487999998,1.72888339025667
12.4141030000001,1.65816556772916
12.4195469999984,1.64820078364573
12.4252650000006,1.71088248997694
12.4305080000013,1.75684907461982
12.4355199999958,1.81470911123324
12.4411539999992,1.74720573518425
12.4467459999993,1.67102335364325
12.4521379999965,1.69448881293647
12.4570829999968,1.69095292181009
12.4627060000002,1.73724095110083
12.4683790000007,1.77131408377318
12.4742729999945,1.72759761166526
12.4795599999949,1.69931048265425
12.4844759999961,1.72952627955237
12.4901209999993,1.73499083856586
12.4959479999989,1.78031453391304
12.5019459999949,1.77292130701244
12.5072320000008,1.77967164461734
12.5124029999971,1.68452402885305
12.5181920000017,1.64659356040647
12.5236229999959,1.74463417800143
12.5293949999958,1.76552808011184
12.5347409999967,1.73402650462231
12.5397910000011,1.74141973152291
12.5458159999996,1.83174567756942
12.5513099999949,1.78963642870076
12.5568889999986,1.73659806180513
12.5620239999965,1.68998858786654
12.5672919999957,1.72245449729962
12.5728759999946,1.71634704899043
12.5785419999957,1.70445359701989
12.5839069999978,1.80345854855841
12.5888669999987,1.85713980474975
12.5944429999962,1.8844625998172
12.5998859999999,1.68741703068372
12.6064710000008,1.70381070772419
12.6124309999943,1.73724095110083
12.6175199999958,1.61766354209976
12.6231400000006,1.80185132531915
12.6287859999985,1.93589374347357
12.6344949999973,1.69673892547144
12.6402289999947,1.56687528773909
12.6455019999966,1.59355519351084
12.6509469999969,1.77935019996949
12.6569219999984,1.62023509928258
12.662486999996,1.75234884954989
12.6680969999954,1.74238406546647
12.6733809999973,1.55305316788144
12.6787409999967,1.37272272043629
12.6845319999978,1.44761932338588
12.6902269999981,1.48394256859319
12.6959409999996,1.38654484029394
12.7017360000014,1.55176738929003
12.7067719999999,1.4710847826791
12.7125260000005,1.24028752552113
12.7181579999998,1.5466242749244
12.7237199999988,1.39393806719454
12.7290929999948,1.24543063988676
12.7345029999986,1.23482296650764
12.7402870000005,1.2370730790426
12.7459549999982,1.22421529312851
12.7516279999986,1.29493311565602
12.7570480000004,1.33318502875045
12.7621110000014,1.34250692353817
12.7677289999947,1.31036245875293
12.7733940000013,1.22132229129784
12.7792219999954,1.18532049073838
12.7850300000012,1.22325095918495
12.7909710000008,1.25989564904012
12.7995700000003,1.30136200861307
12.805987999998,1.32643469114555
12.8116959999949,1.4022956280387
12.8184050000012,1.38236605987186
12.8245349999964,1.41740352648776
12.8311639999971,1.45565543958219
12.8377399999946,1.47944234352326
12.8447639999986,1.50387213676004
12.8526510000005,1.59291230421513
12.8615869999975,1.53858815872809
12.8703469999954,1.59644819534151
12.8781049999967,1.5675181770348
12.8861539999992,1.68516691814875
12.8961709999964,1.67713080195244
12.9048420000002,1.72084727406036
12.9121840000004,1.69995337194996
12.9188519999981,1.70413215237204
12.9259769999981,1.71827571687754
12.9325359999984,1.76424230152043
12.9388919999972,1.76424230152043
12.9451099999994,1.77677864278667
12.9516479999945,1.75942063180264
12.9574539999962,1.77549286419526
12.9643959999979,1.77935019996949
12.9712030000016,1.78642198222224
12.977686999999,1.76617096940754
12.9846599999964,1.70252492913278
12.9911319999993,1.82499533996452
12.9975459999964,1.81535200052895
13.0036440000013,1.75492040673271
13.0103889999986,1.82370956137311
13.0167479999959,1.84846079925774
13.0236389999986,1.71666849363828
13.0301440000013,1.73113350279164
13.0364809999987,1.74077684222721
13.0424699999988,1.72181160800392
13.0487159999982,1.7327407260309
13.0550670000017,1.79702965560136
13.063186999999,1.74720573518425
13.0697100000009,1.6842025842052
13.0773649999946,1.68709558603587
13.0831039999947,1.78610053757438
13.0893460000008,1.75974207645049
13.0970949999988,1.6160563188605
13.1059309999943,1.7057393756113
13.1152199999988,1.59194797027158
13.1231079999954,1.93717952206498
13.1317159999982,1.70670370955486
13.1409429999962,1.62923554942245
13.1499219999984,1.44022609648528
13.1594729999974,1.37850872409763
13.1685949999988,1.34893581649521
13.1771330000013,1.72309738659533
13.1852690000013,1.22839407355059
13.1931030000001,1.46465588972205
13.200123999998,1.42093941761414
13.2099149999991,1.44633354479447
13.2184120000005,1.27050332241924
13.2258420000002,1.34411414677743
13.2341939999983,1.39940262620803
13.2421309999973,1.22646540566348
13.250560999997,1.32225591072347
13.2586699999943,1.49262157408521
13.2673339999989,1.36565093818353
13.2737199999988,1.23160852002911
13.2814670000002,1.24253763805609
13.2880729999989,1.31293401593575
13.2963539999947,1.37304416508414
13.3028229999989,1.3949024011381
13.310188000001,1.41611774789635
13.3169619999975,1.44086898578098
13.3236059999987,1.40197418339085
13.3317599999979,1.48104956676252
13.3378790000007,1.56398228590842
13.3446889999956,1.54855294281151
13.3522149999961,1.56848251097836
13.3600899999961,1.61412765097339
13.3673579999954,1.55819628224708
13.3765829999968,1.58809063449735
13.3845119999945,1.65398678730708
13.3907170000002,1.64402200322365
13.3972449999973,1.64498633716721
13.4040159999952,1.69866759335855
13.411186999999,1.71795427222969
13.4183940000013,1.74559851194499
13.4252899999991,1.72309738659533
13.4313069999963,1.72470460983459
13.4387449999973,1.77163552842103
13.4448969999999,1.83335290080868
13.4543420000002,1.76745674799895
13.4619809999987,1.73306217067875
13.4685859999955,1.72888339025667
13.4760799999982,1.73884817434009
13.4838759999946,1.73049061349593
13.4913649999946,1.7610278550419
13.5000029999986,1.76392085687257
13.5101969999969,1.78513620363083
13.5191110000014,1.71763282758184
13.5264199999943,1.75074162631063
13.5364789999947,1.78577909292653
13.5455179999992,1.77838586602593
13.5524629999995,1.77517141954741
13.5594089999944,1.73691950645298
13.5667769999951,1.67166624293895
13.5745890000016,1.77613575349096
13.5820579999983,1.7462414012407
13.5922060000002,1.77002830518177
13.5989089999944,1.71216826856835
13.6080300000012,1.83174567756942
13.6159699999988,1.74849151377566
13.6237629999965,1.69545314688003
13.632799999997,1.89539171784418
13.6405040000007,1.69577459152788
13.6501220000014,1.95518042234471
13.6575979999974,1.64884367294144
13.6667470000014,1.54405271774158
13.6754899999946,1.63084277266171
13.6849809999987,1.2647173187579
13.6931929999962,1.68741703068372
13.7016429999992,1.65945134632057
13.708623999998,1.30811234621797
13.7174569999948,1.41097463353071
13.7249739999995,1.21971506805858
13.7344289999977,1.31132679269649
13.7422749999985,1.38365183846327
13.7501279999986,1.16249792074086
13.7590159999952,1.41322474606568
13.7667170000002,1.23610874509905
13.7752859999985,1.31068390340079
13.7834710000008,1.30264778720448
13.7901699999943,1.31036245875293
13.7975099999979,1.3193629088928
13.8060759999976,1.34218547889031
13.8140729999989,1.33704236452468
13.8220269999951,1.38558050635038
13.8309010000005,1.38750917423749
13.838924999997,1.44086898578098
13.8490019999966,1.48426401324105
13.8554420000017,1.54758860886795
13.8624120000005,1.56687528773909
13.8703570000008,1.57330418069614
13.8767599999979,1.51640847802628
13.8848209999949,1.62634254759178
13.8924750000015,1.68163102702238
13.9006099999994,1.61316331702983
13.908674999997,1.6983461487107
13.9158530000001,1.72309738659533
13.9252910000011,1.78770776081365
13.9349769999981,1.64273622463224
13.9412709999979,1.81824500235962
13.9481379999965,1.79252943053143
13.9560199999958,1.72534749913029
13.9632929999977,1.61380620632553
13.9706419999972,1.77484997489955
13.9795,1.78899353940506
13.9877390000001,1.70895382208982
13.9973599999994,1.76649241405539
14.0058170000017,1.67198768758681
14.0118099999949,1.72341883124318
14.0189799999967,1.75620618532412
14.028111999996,1.74913440307137
14.0362859999984,1.73627661715727
14.0436309999973,1.67520213406533
14.0521279999986,1.61669920815621
14.061049999997,1.74495562264929
14.0682679999992,1.67488068941748
14.0750179999992,1.69963192730211
14.0832479999959,1.73177639208734
14.0910729999989,1.69673892547144
14.0967749999985,1.84138901700499
14.1029279999956,1.7886720947572
14.1092089999989,1.70895382208982
14.1156899999976,1.64177189068869
14.121862999998,1.58744774520164
14.1281599999964,1.74977729236707
14.1343539999947,1.67488068941748
14.1405459999964,1.7394910636358
14.1469539999962,1.77902875532163
14.1525190000013,1.63598588702735
14.1585719999969,1.38686628494179
14.1650749999955,1.55755339295138
14.1713449999988,1.8433176848921
14.1778769999966,1.49358590802876
14.1841269999966,1.50676513859071
14.1906400000006,1.71120393462479
14.1969839999974,1.59676963998936
14.2030700000003,1.53280215506675
14.2097119999975,1.3881520635332
14.2158479999974,1.46594166831346
14.2215019999966,1.26600309734931
14.2275449999943,1.22678685031133
14.2337069999948,1.2161791769322
14.2398889999986,1.36147215776145
14.2463369999975,1.35247170762159
14.253125,1.44986943592085
14.2594409999996,1.38043739198474
14.2655179999992,1.2094288393273
14.2717149999961,1.39425951184239
14.2772859999985,1.37272272043629
14.2837009999976,1.3261132464977
14.2910939999968,1.30264778720448
14.2975929999948,1.3119696819922
14.3053170000017,1.32161302142777
14.3117409999967,1.32547035720199
14.3194769999981,1.41997508367058
14.3263969999999,1.43636876071105
14.3325929999948,1.39200939930743
14.3392219999954,1.41611774789635
14.3462919999957,1.50676513859071
14.3526809999943,1.57233984675258
14.3593399999961,1.58487618801882
14.3656969999969,1.56944684492191
14.3719209999964,1.63952177815372
14.3786429999992,1.64820078364573
14.3854609999955,1.64884367294144
14.3917430000007,1.81599488982465
14.3979469999969,1.64048611209728
14.4038989999965,1.51865859056124
14.4107179999948,1.4993719116901
14.4164670000002,1.53955249267165
14.4239349999949,1.56719673238695
14.4303539999947,1.67552357871318
14.436924999997,1.70927526673768
14.4435040000007,1.67713080195244
14.4504199999943,1.6713447982911
14.4584640000016,1.7118468239205
14.4644209999964,1.67777369124815
14.4710159999952,1.76006352109835
14.4777659999952,1.69063147716224
14.4841620000005,1.71827571687754
14.4904039999992,1.71409693645546
14.4974459999949,1.70991815603338
14.5039640000015,1.66298723744694
14.5104549999982,1.79799398954492
14.5177959999964,1.74270551011432
14.5238799999952,1.7266332777217
14.5304829999954,1.69320303434506
14.5371889999956,1.72245449729962
14.5432349999994,1.73659806180513
14.5493420000002,1.69063147716224
14.5558720000014,1.74174117617076
14.5614469999969,1.70895382208982
14.5676449999958,1.66041568026412
14.5738989999965,1.8095659968676
14.5802929999977,1.77163552842103
14.5865019999966,1.86774747812888
14.5928799999952,1.62184232252184
14.5989979999959,1.59998408646788
14.6053999999985,1.76263507828116
14.6117430000007,2.11429552303161
14.6174289999977,1.73788384039653
14.623550999999,1.55691050365567
14.629862999998,1.58069740759674
14.6361550000012,1.59805541858077
14.6433549999967,1.98314610670786
14.649548999995,1.84010323841358
14.6557980000004,1.5681610663305
14.6623720000014,1.67520213406533
14.6687299999967,1.19721394270891
14.6751660000011,1.73370505997445
14.6815179999992,1.72920483490452
14.6877399999946,1.45244099310366
14.6934839999974,1.3193629088928
14.6998999999985,1.44826221268158
14.7062629999965,1.34829292719951
14.7125059999973,1.29718322819099
14.7186589999944,1.09113720891764
14.7249649999961,1.2849683315726
14.7310960000008,1.27178910101065
14.7373519999981,1.35600759874796
14.7436959999949,1.09467310004402
14.7494670000002,1.24896653101314
14.7555670000017,1.36854394001421
14.7619319999963,1.21457195369294
14.7680890000016,1.13678234891267
14.7740289999992,1.15735480637522
14.7802129999995,1.22742973960703
14.7864459999949,1.26664598664502
14.792424999997,1.25378820073092
14.7992259999961,1.28111099579837
14.8052580000013,1.31100534804864
14.8116489999965,1.31036245875293
14.8179640000015,1.31550557311857
14.8249319999963,1.50580080464715
14.8313289999962,1.41354619071353
14.8374899999946,1.44472632155521
14.8436229999959,1.28014666185481
14.8501709999964,1.41740352648776
14.8566070000008,1.49905046704225
14.8630769999996,1.59837686322862
14.869686999999,1.47333489521407
14.8761569999978,1.46015566465212
14.8826799999997,1.40454574057367
14.888674999997,1.46015566465212
14.8949149999991,1.61187753843842
14.9014399999976,1.65109378547641
14.9083799999952,1.6086630919599
14.9147199999988,1.65141523012426
14.9216330000013,1.61734209745191
14.9277980000004,1.59226941491943
14.9339710000008,1.60641297942493
14.9410269999951,1.65655834448989
14.9472189999968,1.72534749913029
14.9539809999987,1.79027931799646
14.9603189999983,1.67005901969969
14.9666609999984,1.67295202153036
14.9730219999999,1.63823599956231
14.9788830000013,1.68163102702238
14.9861209999993,1.83142423292156
14.9920139999986,1.81535200052895
14.9986299999952,1.8082802182762
15.0058659999967,1.68838136462728
15.0123379999995,1.68934569857083
15.0190819999948,1.71216826856835
15.0261840000004,1.77581430884311
15.0337969999984,1.77742153208237
15.0401799999997,1.74656284588855
15.0465799999982,1.81181610940257
15.0530569999963,1.7475271798321
15.059175999999,1.80635155038908
15.0658720000014,1.69545314688003
15.0720249999985,1.63662877632305
15.0788809999973,1.73370505997445
15.085199000001,1.84460346348351
15.0914799999967,1.77002830518177
15.0978209999949,1.74431273335358
15.10325,1.80699443968479
15.1101140000001,1.73016916884808
15.1163350000009,1.71538271504687
15.1223830000013,1.95068019727478
15.1301939999983,1.5466242749244
15.1363640000001,1.43540442676749
15.1427280000001,1.72631183307385
15.148936999999,1.64177189068869
15.1554589999989,1.59998408646788
15.1617739999965,1.36854394001421
15.1680909999982,1.73563372786157
15.1743200000003,1.62312810111325
15.1800419999957,1.51608703337843
15.1864389999956,1.72920483490452
15.1932030000016,1.55723194830352
15.1995279999971,1.53344504436245
15.2061969999969,1.28528977622045
15.2126140000001,1.65205811941996
15.2191589999944,1.73209783673519
15.2253959999979,1.64016466744943
15.2316840000004,1.26085998298367
15.2380859999955,1.72984772420023
15.2444340000004,1.66073712491198
15.250423999995,1.6234495457611
15.2560679999962,1.50419358140789
15.2624189999998,1.51833714591339
15.268611999996,1.64530778181506
15.2749129999951,1.525730372814
15.2813799999952,1.59355519351084
15.2878079999983,1.57169695745688
15.294125,1.67166624293895
15.3005419999957,1.74495562264929
15.3068289999962,1.74849151377566
15.3132039999962,1.8156734451768
15.3192760000005,1.69577459152788
15.3249679999948,1.78095742320875
15.3320819999948,1.88028381939512
15.3386209999993,1.79445809841854
15.344949000001,1.7118468239205
15.3511379999965,1.77292130701244
15.3573189999983,1.83849601517431
15.3637569999993,1.87385492643807
15.3699589999989,1.85874702798901
15.3762329999954,1.80538721644552
15.3824169999957,1.86260436376324
15.3880339999944,1.84010323841358
15.3945810000002,1.91499984136317
15.4012980000004,1.8156734451768
15.4092430000007,1.82081655954244
15.4171689999998,1.92817907192511
15.4227629999965,1.91821428784169
15.4290819999948,1.84846079925774
15.4352980000004,1.83271001151297
15.4413079999983,1.88639126770431
15.4475639999956,1.87578359432518
15.453923999995,1.8777122622123
15.4601339999959,1.88735560164787
15.4662479999959,1.86003280658042
15.472799999997,1.81920933630317
15.478236999996,1.72502605448244
15.4846639999971,1.93203640769934
15.4914799999967,1.79156509658787
15.4981620000005,1.70670370955486
15.5045949999988,1.79638676630566
15.5108689999953,1.79831543419277
15.5182170000002,1.73081205814378
15.5241330000013,1.79124365194002
15.5307129999995,1.76520663546398
15.5369399999976,1.82692400785163
15.5435150000006,1.76006352109835
15.5498830000013,1.80474432714982
15.5558729999959,1.77356419630814
15.5615529999956,1.6639515713905
15.567737999998,1.74109828687506
15.5739189999998,1.60448431153782
15.5801199999973,1.93782241136068
15.5864179999977,1.57684007182252
15.5928900000006,1.77067119447747
15.5989970000014,1.50901525112567
15.6055069999993,1.81310188799398
15.6121889999956,1.4366902053589
15.6183610000014,1.48844279366313
15.625449000001,1.52669470675755
15.6314629999995,1.58551907731453
15.6381829999983,1.55016016605077
15.6448249999955,1.39586673508165
15.6511959999949,1.43540442676749
15.6577760000005,1.33575658593327
15.6647529999986,1.22775118425488
15.6713029999956,1.1682839244022
15.6780960000008,1.0509566279361
15.6845639999956,1.04613495821832
15.6907879999951,1.14835435623536
15.697373999998,1.07281486399006
15.7039979999959,1.21746495552361
15.7108979999945,0.877055073447991
15.7178759999946,0.919164322316647
15.7244319999963,1.09017287497409
15.7312030000016,1.07570786582073
15.7377039999962,0.986989143013489
15.7443420000002,0.949701563862618
15.7522839999944,0.994382369914092
15.7603489999995,1.09531598933972
15.767324000001,0.959023458650336
15.7737580000013,0.946165672736242
15.7801400000006,0.97059546597302
15.7865979999974,0.967381019494496
15.7931440000013,1.0718505300465
15.7995219999999,1.03392006159993
15.8062929999977,1.22100084664999
15.8115029999986,1.1197457825765
15.817050999999,1.05481396371033
15.8224959999993,0.959987792593893
15.8282479999959,0.967702464142349
15.8335439999998,1.01881216315087
15.8384750000015,1.03456295089563
15.8440799999982,1.02074083103798
15.8497089999989,1.04999229399255
15.8552049999982,1.01784782920731
15.860185999997,1.05159951723181
15.865824000001,1.0644573031459
15.8712569999993,1.0435634010355
15.8770689999983,1.10142343764892
15.882549999997,1.05867129948456
15.8875049999952,1.02652683469933
15.8932339999974,1.07924375694711
15.8990480000004,1.06092141201952
15.9053830000013,1.01816927385516
15.9109109999984,1.05867129948456
15.915674999997,1.07699364441214
15.9214059999958,1.13356790243415
15.9270520000011,1.06542163708946
15.9328310000002,1.06831463892013
15.9392119999975,1.10142343764892
15.9446840000004,1.08631553919986
15.9497339999974,1.0847083159606
15.9553570000008,1.10463788412744
15.9611140000001,1.13678234891267
15.9677159999982,1.08792276243912
15.9745040000007,1.10463788412744
15.9805939999968,1.13710379356053
15.9863489999995,1.14771146693965
15.9914970000014,1.00949026836315
15.9972449999973,1.01302615948953
16.0031000000015,1.1676410351065
16.0089199999943,1.20589294820093
16.0146000000015,1.08985143032623
16.0195559999943,1.12360311835073
16.0252889999971,1.20750017144019
16.0309189999998,1.13646090426482
16.0366159999967,1.11428122356301
16.042063000001,1.13099634525133
16.0470549999997,1.09853043581825
16.0528669999987,1.20171416777885
16.0585480000004,1.1891778265126
16.0642289999947,1.0982089911704
16.0697430000007,1.14128257398261
16.0748390000015,1.00209704146255
16.0805179999992,1.11813855933724
16.0864129999951,1.28914711199468
16.0919739999995,1.19914261059603
16.0972019999996,1.20846450538374
16.1021969999969,1.29332589241676
16.1081469999999,1.16474803327583
16.1139169999957,1.07474353187717
16.1197119999975,1.30104056396522
16.1257159999982,1.08310109272134
16.1307829999998,0.906306536402553
16.1366079999954,0.935879444004968
16.1421770000011,1.14706857764395
16.1478280000016,1.16571236721938
16.1536070000008,0.957094790763222
16.158563000001,1.04838507075328
16.1642769999951,1.16731959045865
16.1702459999993,0.999525484279729
16.1761449999958,0.838803160353564
16.1819640000015,0.898270420206245
16.1871409999952,1.19142793904757
16.1922949999943,1.1878920479212
16.1980590000004,1.09467310004402
16.2038469999954,1.3335064733983
16.2093219999969,1.21167895186227
16.2142769999951,1.11524555750657
16.2196770000011,0.877055073447991
16.2251620000005,1.04195617779624
16.2306979999989,1.40197418339085
16.2359569999948,1.2155362876365
16.2409019999951,1.20428572496166
16.2467019999996,1.19914261059603
16.2523479999974,1.2303227414377
16.2577320000008,1.26278865087079
16.2626849999949,1.28528977622045
16.2686099999994,1.34572137001669
16.274173999995,1.41033174423501
16.2798790000007,1.38397328311112
16.2852939999998,1.44311909831595
16.2902449999973,1.3193629088928
16.2958759999946,1.36211504705716
16.3015989999995,1.56044639478205
16.3080569999963,1.4852283471846
16.3135969999954,1.48265679000178
16.3184589999989,1.50355069211219
16.3241679999977,1.3746513883234
16.3298489999995,1.52155159239192
16.3358500000015,1.55305316788144
16.3413369999975,1.554017501825
16.3462329999954,1.525730372814
16.3518219999969,1.56687528773909
16.357435999997,1.53151637647534
16.3631290000007,1.59034074703231
16.3693179999962,1.6437005585758
16.3758689999953,1.64691500505432
16.3809549999982,1.66588023927761
16.3869699999988,1.66813035181258
16.3929970000014,1.74431273335358
16.3990199999958,1.75170596025418
16.4046840000004,1.73595517250942
16.4100719999969,1.70702515420271
16.4151409999952,1.70381070772419
16.4208649999946,1.8089231075719
16.4263819999993,1.85553258151049
16.432173999995,1.88928426953498
16.4374059999958,1.8844625998172
16.4424539999962,1.85521113686264
16.4482629999965,1.82499533996452
16.4539919999987,1.70252492913278
16.4596969999969,1.71891860617325
16.4648909999952,1.92335740220733
16.4700979999974,1.96482376178028
16.4757390000001,1.88735560164787
16.4815300000012,1.97736010304652
16.4871209999993,1.87739081756445
16.4921489999965,2.01014745712746
16.4981409999952,1.87546214967733
16.5038699999973,1.94232263643062
16.5096030000001,1.77902875532163
16.5151110000014,1.95003730797907
16.5200439999998,1.91467839671532
16.5257789999992,1.92303595755948
16.5315839999989,2.14515420922544
16.5372709999979,1.83335290080868
16.5430279999971,2.02718402346363
16.5484099999964,1.89667749643559
16.5534979999959,1.87417637108592
16.5592729999945,2.01882646261947
16.5651039999947,1.68838136462728
16.5707170000002,1.95968064741464
16.5758819999993,1.88928426953498
16.5813779999986,1.78770776081365
16.5871669999957,1.71023960068123
16.5929270000011,1.90567794657545
16.5984829999954,1.95518042234471
16.6041779999956,1.57008973421762
16.60925,1.74720573518425
16.6148949999958,1.71120393462479
16.6206389999986,1.4636915557785
16.6261579999998,1.66202290350338
16.6311459999979,2.07282916345866
16.6367199999988,1.52669470675755
16.6423819999993,1.45983422000427
16.6481110000014,1.50387213676004
16.6541140000001,1.35118592903018
16.6593359999955,1.69802470406285
16.6647859999985,1.79156509658787
16.670424999997,1.54212404985446
16.676061999999,1.77902875532163
16.6819349999949,1.56880395562621
16.6870329999998,1.59130508097587
16.6923399999961,1.56108928407775
16.6978769999966,1.42351097479695
16.7036039999947,1.75781340856338
16.7089849999994,1.59741252928507
16.7142889999971,1.46304866648279
16.7199189999998,1.45436966099078
16.7254600000009,1.54694571957225
16.7312210000008,1.60030553111574
16.7366599999964,1.59741252928507
16.7417859999984,1.630199883366
16.7474699999988,1.7462414012407
16.7531030000001,1.77259986236459
16.7588350000009,1.66009423561627
16.7641789999977,1.67873802519171
16.769125,1.76199218898546
16.7749860000014,1.81342333264183
16.7805459999964,1.88703415700002
16.7863530000001,1.84942513320129
16.7918399999961,1.85456824756693
16.7969629999995,1.99986122839618
16.803050999999,1.87642648362089
16.8099099999964,1.75524185138056
16.8155590000004,1.88349826587364
16.8218790000007,2.0361844736035
16.8276840000004,1.91596417530673
16.8331550000012,1.91564273065887
16.8383769999966,1.91114250558894
16.844549999997,1.91049961629324
16.850311999999,1.926250404038
16.8564619999975,1.96900254220236
16.8622129999995,1.91499984136317
16.8673599999994,1.9943966693827
16.8730480000004,2.04679214698263
16.8790949999988,2.00500434276182
16.8864010000005,2.04904225951759
16.8925129999965,1.99086077825632
16.8996649999991,1.98893211036921
16.9072229999974,1.99696822656551
16.9138759999946,2.01882646261947
16.9206049999967,2.10722374077886
16.9281489999965,2.03843458613846
16.9363579999954,2.12265308387578
16.9455829999968,2.02429102163296
16.9541149999946,2.14869010035181
16.9625679999962,1.98282466206001
16.9691979999989,2.07636505458504
16.9760780000016,2.22422959259711
16.9839679999948,2.07475783134578
16.9938940000013,2.01946935191518
17.0013919999972,2.12715330894571
17.0092679999992,2.12618897500215
17.0170049999952,1.83431723475223
17.0251449999958,2.26505306287436
17.0325289999992,1.67873802519171
17.0401529999971,2.00821878924035
17.048436999999,1.84074612770928
17.057563000001,2.23033704090631
17.0652540000007,1.67938091448741
17.0729079999998,1.73852672969224
17.0808549999967,1.73756239574868
17.0876259999946,1.89732038573129
17.0948339999989,1.44119043042883
17.1029799999967,1.62312810111325
17.1127280000001,1.94264408107847
17.1207419999987,1.73081205814378
17.1281400000006,1.65366534265922
17.1361569999978,1.6774522466003
17.1432889999971,1.47719223098829
17.1520300000012,1.81728066841606
17.1601169999987,1.60351997759426
17.1684919999987,1.53087348717963
17.1764569999948,1.55626761435997
17.1851589999944,1.57555429323111
17.1910979999974,1.61669920815621
17.1980229999945,1.71023960068123
17.2045119999945,1.66202290350338
17.2111199999973,1.64016466744943
17.2175069999993,1.67584502336103
17.2242030000016,1.65752267843345
17.230563000001,1.64016466744943
17.2367980000004,1.61959220998688
17.2434299999997,1.71023960068123
17.2494629999995,1.73370505997445
17.2557980000004,1.78449331433512
17.2625279999971,1.70991815603338
17.269185999997,1.66909468575614
17.2771009999961,1.69448881293647
17.2832039999962,1.75009873701492
17.2899050000012,1.7812788678566
17.2974199999943,1.75684907461982
17.3042109999955,1.8230666720774
17.3101209999993,1.88285537657794
17.3161309999973,1.88092670869082
17.3231169999987,1.86774747812888
17.3294459999949,1.82499533996452
17.3361550000012,1.77292130701244
17.3424809999987,1.83045989897801
17.3497949999943,1.83110278827371
17.3570009999946,1.85617547080619
17.3640689999983,1.77742153208237
17.3723179999962,1.76199218898546
17.3790080000013,1.6983461487107
17.3857149999961,1.78417186968727
17.3929069999978,1.91082106094109
17.3988640000001,1.83817457052646
17.4054939999953,1.77549286419526
17.4122129999995,1.77484997489955
17.4185289999992,1.69963192730211
17.4253399999961,1.75009873701492
17.4323519999981,1.8015298806713
17.4391529999971,1.76970686053392
17.4464809999987,1.89571316249203
17.4531939999983,1.92400029150303
17.4601719999984,1.50322924746433
17.4672470000014,1.85456824756693
17.4731809999943,1.70670370955486
17.4789759999961,1.54083827126306
17.4848779999986,1.65077234082855
17.4916349999979,1.6842025842052
17.4983570000008,1.7886720947572
17.5064829999954,1.25668120256159
17.5131840000004,1.61637776350835
17.5203310000002,1.46787033620058
17.5279289999977,1.71570415969472
17.5344429999962,1.60030553111574
17.5424139999971,1.39233084395528
17.5493709999993,1.29396878171246
17.555048999995,1.38397328311112
17.5610019999966,1.60962742590345
17.5670159999952,1.25153808819596
17.5729769999981,1.46304866648279
17.579061999999,1.36757960607065
17.5852549999952,1.55466039112071
17.5911809999943,1.25443109002663
17.5966979999989,1.17792726383777
17.6026529999971,1.68355969490949
17.6097179999948,1.43347575888038
17.6155789999962,1.3335064733983
17.6215019999966,1.36565093818353
17.6274799999967,1.47815656493185
17.6339069999978,1.46979900408769
17.6398889999986,1.4980861330987
17.6449890000001,1.64080755674513
17.6525169999972,1.51544414408272
17.6581959999949,1.61702065280406
17.6660199999958,1.52123014774406
17.6719579999968,1.72727616701741
17.6780949999988,1.62023509928258
17.6837760000005,1.49519313126802
17.6897419999987,1.51415836549131
17.6968209999949,1.57362562534399
17.7022819999978,1.66073712491198
17.7076199999973,1.66266579279909
17.7133589999974,1.58134029689245
17.7192839999944,1.61830643139547
17.7251180000007,1.65462967660278
17.7311649999991,1.59709108463721
17.7371469999999,1.55658905900782
17.7426849999949,1.66427301603835
17.7482170000002,1.66234434815124
17.754199000001,1.63855744421016
17.7620129999965,1.69191725575365
17.7691849999949,1.71538271504687
17.7756379999965,1.79992265743203
17.7819139999971,1.68838136462728
17.7889169999957,1.65945134632057
17.7958350000009,1.67520213406533
17.8029670000002,1.79156509658787
17.8092729999945,1.79992265743203
17.8157119999975,1.79606532165781
17.8217839999944,1.70798948814627
17.8283159999996,1.72631183307385
17.8348020000011,1.89217727136565
17.8407320000008,1.80410143785411
17.8469189999998,1.70027481659781
17.853174999997,1.68355969490949
17.8599010000005,1.78417186968727
17.8667839999944,1.82853123109089
17.8734089999944,1.84235335094854
17.88025,1.81374477728968
17.8869609999955,1.6854883627966
17.8939729999974,1.71023960068123
17.9009719999954,1.94264408107847
17.9077089999989,1.81053033081116
17.9144429999962,1.6363073316752
17.9207309999987,1.51126536366064
17.9276359999999,2.0233266876894
17.9337109999955,1.61284187238198
17.9403940000013,1.2647173187579
17.9471939999983,1.63920033350587
17.9541110000014,1.6221637671697
17.9614279999956,1.59419808280654
17.9678729999959,1.27886088326341
17.9743530000001,1.46047710929997
17.9812929999977,1.33254213945474
17.9879429999962,1.44504776620306
17.9944129999951,1.1399967953912
18.0005329999998,1.38011594733689
18.0068229999989,1.52058725844836
18.0136929999962,1.55241027858574
18.0202809999958,1.17728437454207
18.0267360000014,1.48362112394534
18.0334450000003,1.3200057981885
18.0401809999943,1.26761032058857
18.0483879999965,1.19849972130032
18.0552280000001,1.25828842580086
18.0614399999976,1.25346675608307
18.0686059999987,1.30007623002166
18.0747329999954,1.38397328311112
18.0813319999948,1.41611774789635
18.0879919999987,1.37690150085837
18.0945869999975,1.5398739373195
18.1012399999946,1.43251142493682
18.1074209999964,1.44697643409017
18.1142779999971,1.4852283471846
18.1209279999956,1.45147665916011
18.1273999999985,1.4636915557785
18.1330939999968,1.51801570126554
18.138449000001,1.60512720083352
18.1452360000014,1.65109378547641
18.1517929999977,1.60159130970715
18.1586849999949,1.37111549719702
18.166061999999,1.39040217606816
18.1724780000001,1.5958053060458
18.1790639999956,1.54373127309373
18.1861299999952,1.61155609379057
18.1929450000003,1.62537821364822
18.1996479999945,1.65591545519419
18.2059230000004,1.64145044604084
18.2120839999989,1.5681610663305
18.2186429999992,1.67616646800889
18.2251349999979,1.71313260251191
18.2313969999999,1.72406172053888
18.2375410000011,1.65591545519419
18.2437529999986,1.69352447899291
18.2493149999976,1.64530778181506
18.2561049999967,1.72309738659533
18.2626379999965,1.69866759335855
18.2695729999989,1.91178539488465
18.2768680000007,1.69963192730211
18.2835979999974,1.61894932069117
18.2910879999995,1.84974657784915
18.2991429999992,1.6848454735009
18.3057760000005,1.85296102432767
18.3127509999946,2.09661606739974
18.3193149999976,1.41161752282642
18.3259530000016,1.9532517544576
18.3324439999983,1.83367434545653
18.3409010000005,1.56462517520413
18.3472729999945,1.67713080195244
18.3536519999951,1.30875523551367
18.3601609999984,1.6504508961807
18.3665920000002,1.41515341395279
18.3727419999987,1.7333836153266
18.3798589999974,1.2512166435481
18.3865429999977,1.50451502605574
18.3931449999958,1.55176738929003
18.3997109999955,1.54083827126306
18.4062329999953,1.23482296650764
18.4133640000001,1.18082026566844
18.4206319999993,1.44183331972454
18.4271159999967,1.30264778720448
18.4333449999988,1.1197457825765
18.4399029999971,1.37240127578843
18.4465899999961,1.28400399762904
18.4531599999964,1.31454123917501
18.4598159999996,1.35729337733937
18.4664829999953,1.31807713030139
18.4732299999967,1.38333039381541
18.4791299999952,1.26439587411005
18.4850009999946,1.41965363902273
18.492060999997,1.34732859325595
18.5011030000001,1.40647440846078
18.5080239999965,1.62441387970466
18.5160659999996,1.46915611479199
18.5225729999989,1.46915611479199
18.5294160000011,1.57041117886547
18.5362980000004,1.45854844141286
18.5445309999958,1.51640847802628
18.5515260000005,1.54373127309373
18.5581039999947,1.56108928407775
18.5645300000012,1.50580080464715
18.5710019999966,1.4919786847895
18.5776709999964,1.56687528773909
18.5846819999963,1.49101435084594
18.5907969999984,1.53440937830601
18.596688000001,1.51994436915265
18.6033350000009,1.59998408646788
18.6100119999945,1.6369502209709
18.6166149999946,1.60062697576359
18.6235359999984,1.58744774520164
18.630199000001,1.58905496844091
18.6368849999979,1.64787933899788
18.6434699999988,1.61412765097339
18.6503509999961,1.60448431153782
18.6567690000013,1.72406172053888
18.6630979999974,1.71023960068123
18.6697789999992,1.72213305265177
18.676123999998,1.7050964863156
18.6829640000016,1.68034524843097
18.6894340000004,1.63662877632305
18.695938000001,1.7050964863156
18.7014319999963,1.6774522466003
18.7069079999998,1.67198768758681
18.7131950000003,1.55241027858574
18.7196389999986,1.72245449729962
18.7260069999993,1.53183782112319
18.732949000001,1.94103685783921
18.7398889999986,1.87931948545156
18.7467659999952,1.44890510197729
18.7531000000015,2.10240207106108
18.7599089999944,1.56591095379554
18.7666499999985,1.66427301603835
18.7732100000009,1.33864958776394
18.7797919999957,1.71216826856835
18.7861969999969,1.49230012943735
18.7933869999945,1.85649691545404
18.8000029999986,1.44826221268158
18.8068680000007,1.54244549450232
18.8131920000017,1.50997958506923
18.8204780000001,1.15478324919241
18.8269909999967,1.43765453930246
18.8330960000008,1.21682206622791
18.8400309999958,1.88414115516935
18.8466269999966,1.14096112933476
18.8543189999983,1.52540892816614
18.8613479999974,1.36886538466206
18.8677679999992,1.24060897016898
18.8741220000014,1.2431805273518
18.8805040000007,1.2843254422769
18.8878659999967,1.38236605987186
18.8954799999967,1.28078955115052
18.9046269999966,1.30136200861307
18.9110759999976,1.38236605987186
18.9177980000004,1.29879045143025
18.9246259999946,1.2782179939677
18.9318229999989,1.37015116325347
18.9390190000013,1.43444009282393
18.9467030000016,1.48908568295883
18.953498999998,1.42222519620555
18.9603929999992,1.50805091718212
18.9679319999963,1.54244549450232
18.9748379999995,1.6154134295648
18.9823549999967,1.52765904070111
18.9898170000017,1.55755339295138
18.9969799999967,1.53505226760171
19.0031779999956,1.55916061619064
19.0091929999962,1.57973307365319
19.0159799999967,1.50162202422507
19.0235260000005,1.55176738929003
19.0308189999983,1.65752267843345
19.0379579999968,1.58005451830104
19.0451950000003,1.65848701237701
19.0523319999948,1.68163102702238
19.0595159999952,1.68227391631808
19.0657449999973,1.65687978913775
19.0730799999982,1.67102335364325
19.0812390000001,1.65945134632057
19.0880260000005,1.70252492913278
19.0956149999946,1.6989890380064
19.1025969999954,1.72149016335607
19.110112999998,1.72824050096096
19.1176629999951,1.73884817434009
19.1256259999946,1.67230913223466
19.1345150000006,1.79317231982714
19.1433610000014,1.72470460983459
19.1512259999961,1.64627211575862
19.158299999997,1.52765904070111
19.1654299999997,1.72888339025667
19.1724519999996,1.82435245066881
19.1792679999992,1.79124365194002
19.1898310000002,1.71216826856835
19.2015029999986,1.55176738929003
19.2109919999987,1.74656284588855
19.2196079999954,1.38718772958964
19.2276789999977,1.95196597586619
19.2375099999979,1.55819628224708
19.2453589999974,1.4784780095797
19.2551620000005,1.60994887055131
19.2630579999983,1.38654484029394
19.2713269999996,1.38268750451971
19.2787599999979,1.3746513883234
19.2850429999977,1.64820078364573
19.2923090000004,1.35890060057864
19.3002719999999,1.43411864817608
19.3074849999994,1.34282836818602
19.3164780000001,1.4784780095797
19.3239949999973,1.45790555211715
19.3306299999952,1.27211054565851
19.3373259999976,1.39779540296877
19.3446660000011,1.30714801227441
19.3512309999987,1.27982521720696
19.3578889999986,1.33447080734186
19.3645520000011,1.42608253197977
19.372237999998,1.37561572226696
19.3782449999973,1.38525906170253
19.3853359999955,1.4717276719748
19.3926519999951,1.5951624167501
19.3995449999943,1.64595067111077
19.4067219999954,1.62827121547889
19.4133779999986,1.34604281466454
19.4204949999973,1.43894031789387
19.427188000001,1.41868930507917
19.4356469999999,1.41418908000924
19.4423139999956,1.48072812211467
19.4493549999967,1.52733759605326
19.4582079999968,1.61669920815621
19.4672140000016,1.51833714591339
19.4750179999992,1.48940712760668
19.4841849999949,1.54469560703728
19.4901779999956,1.5742685146397
19.4975289999992,1.67166624293895
19.5066000000015,1.58616196661023
19.5159609999955,1.64016466744943
19.5258299999982,1.63984322280157
19.5348889999986,1.73016916884808
19.5451589999944,1.65848701237701
19.5558669999987,1.6369502209709
19.5662289999947,1.63566444237949
19.5778399999961,1.65077234082855
19.5881969999969,1.73177639208734
19.5967870000005,1.70541793096345
19.6078219999969,1.70316781842848
19.6161259999946,1.72374027589103
19.6244569999948,1.84749646531418
19.6361909999996,1.70413215237204
19.6442069999948,1.62923554942245
19.6548999999985,1.77806442137808
19.6645649999976,1.74495562264929
19.674799999997,1.59805541858077
19.6846620000005,1.74334839941002
19.6928709999993,1.54212404985446
19.7027569999993,1.84203190630069
19.712498999998,1.42029652831843
19.7219429999962,1.5196229245048
19.7306699999943,1.54083827126306
19.7385799999982,1.45404821634293
19.7481009999961,1.4845854578889
19.7586770000011,1.42961842310615
19.767824000001,1.5054793599993
19.7795019999966,1.47237056127051
19.788175999999,1.32547035720199
19.7979109999985,1.41033174423501
19.8067299999967,1.45854844141286
19.8165869999975,1.45372677169507
19.8239549999982,1.48329967929749
19.8313090000004,1.40936741029145
19.8418909999952,1.58969785773661
19.8517969999984,1.53119493182749
19.8609450000003,1.4643344450742
19.8706000000015,1.52155159239192
19.8802449999973,1.63566444237949
19.8878059999943,1.57716151647037
19.8984600000009,1.55080305534648
19.9062069999948,1.56462517520413
19.9156939999983,1.58134029689245
19.9225260000005,1.57169695745688
19.931549999997,1.64048611209728
19.9413289999962,1.66491590533406
19.9500289999992,1.70991815603338
19.9585399999991,1.67648791265674
19.9688769999966,1.72438316518674
19.9780899999961,1.80345854855841
19.9881389999986,1.72406172053888
19.9980119999945,1.80731588433264
20.0073179999962,1.83785312587861
20.0174699999988,1.75813485321123
20.025435999997,1.92592895939015
20.033300999999,1.92946485051652
20.0450069999993,1.81470911123324
20.0546559999958,1.92914340586867
20.0635199999958,1.73209783673519
20.0738429999948,1.78835065010935
20.0815219999999,1.81985222559888
20.0932769999951,1.85842558334116
20.1033779999986,1.78513620363083
20.1110949999988,1.75781340856338
20.1199499999955,1.91532128601102
20.1297159999982,1.3949024011381
20.1392159999982,1.78417186968727
20.149561999999,1.94778719544411
20.1573489999995,1.77806442137808
20.1684010000005,1.38975928677246
20.1776110000014,1.52990915323608
20.1875469999984,1.5816617415403
20.1976079999954,1.75009873701492
20.2086149999946,1.51608703337843
20.2192069999948,1.52765904070111
20.2301709999964,1.57105406816117
20.2412749999985,1.59001930238446
20.2511579999998,1.64498633716721
20.2619059999958,1.73177639208734
20.2736829999983,1.69063147716224
20.2840780000016,1.68066669307882
20.2936979999989,1.59419808280654
20.3040469999984,1.58455474337097
20.3122299999967,1.59966264182003
20.322560999997,1.56333939661272
20.3325670000017,1.630199883366
20.3387800000012,1.57458995928755
20.3474949999973,1.53087348717963
20.3557019999996,1.5749114039354
20.3652140000016,1.55819628224708
20.3726359999999,1.59323374886299
20.379425999999,1.57266129140044
20.387174999997,1.53087348717963
20.3957289999947,1.56494661985198
20.4042049999982,1.50837236182997
20.4131459999979,1.59484097210225
20.4205309999958,1.32772046973696
20.4285899999961,1.48876423831098
20.4357399999946,1.39393806719454
20.4427939999998,1.353757486213
20.4515229999945,1.39843829226447
20.4604789999947,1.31132679269649
20.4680040000007,1.41933219437487
20.4755899999961,1.3605078238179
20.4838519999981,1.24960942030884
20.4921159999967,1.1332464577863
20.5005169999972,1.229679852142
20.5097079999968,1.35632904339582
20.5189949999973,1.53762382478453
20.5272509999946,1.13806812750408
20.5363669999987,0.968023908790201
20.5453149999976,1.16442658862798
20.5522039999962,0.972524133860134
20.5593900000006,0.985381919774227
20.567612999998,0.667473163048271
20.5758729999959,0.758120553742629
20.5851459999979,0.682259616849478
20.5928709999993,0.784157570218667
20.6003390000016,0.493250163912307
20.6078390000016,0.504822171234991
20.6153500000015,0.336706620408222
20.6215469999984,0.337349509703927
20.6294209999964,0.39713821420446
20.6380080000013,0.255702569149435
20.6462210000008,0.0445134355104528
20.6544219999984,0.374315644206945
20.6625159999952,0.128089043952059
20.6700909999982,0.143518387048971
20.6782189999968,0.175019962538499
20.6893570000008,0.110731032968033
20.6969640000016,0.145768499583937
20.7050080000013,0.163769399863668
20.7126309999973,0.122624484938569
20.7205159999952,0.148661501414608
20.7281689999998,0.167948180285748
20.7357250000015,0.234487222391181
20.742813000001,0.0724791198736057
20.7497390000001,0.214557654224336
20.757861999996,0.202985646901652
20.7647479999959,0.227415440138429
20.7714420000017,0.279168028442655
20.7777039999962,0.303919266327284
20.7845179999992,0.223879549012054
20.7912449999973,0.320955832663458
20.7980429999977,0.31163393787574
20.8046089999974,0.371422642376274
20.8113079999983,0.360493524349295
20.818375,0.407424442935735
20.825185999997,0.458212697296403
20.8319399999976,0.431211346876808
20.8386059999987,0.476535042223986
20.8451319999993,0.53085918771103
20.8517320000008,0.516072733909823
20.858111999996,0.56396798643982
20.8650309999958,0.647543594881427
20.8717349999994,0.526037517993245
20.8784509999976,0.553038868412841
20.8851059999987,0.535359412780963
20.8915209999979,0.742691210645717
20.8986019999981,0.64657926093787
20.9057250000015,0.583576109958813
20.9129349999949,0.482321045885328
20.9197140000015,0.702510629664175
20.9263390000016,0.776442898670211
20.9328090000004,0.585826222493779
20.9393599999994,0.657186934316996
20.9458699999973,0.648186484177131
20.9524059999958,0.642079035867937
20.9594629999995,0.771942673600279
20.9671089999974,0.782228902331553
20.9755159999952,0.703474963607732
20.9833079999983,0.619256465870421
20.9899299999997,0.564932320383377
20.9964349999949,0.674544945301022
21.0031369999945,0.746869991067797
21.0098049999997,0.631792807136662
21.0164299999997,0.414174780540634
21.0239270000011,0.857125505281147
21.0304750000015,0.665865939809009
21.0370549999997,0.728869090788066
21.0434939999953,0.766156669938937
21.0507879999951,0.246059229713865
21.0584939999953,0.709260967269074
21.0653359999955,0.752013105433434
21.0718879999965,0.582290331367403
21.0785119999945,0.585183333198074
21.0851809999943,0.691902956285048
21.0917449999973,0.524751739401836
21.098237999998,0.463998700957745
21.1046499999985,1.07410064258147
21.1109139999971,0.990846478787716
21.1174469999969,0.844589164014906
21.1239640000015,0.762620778812561
21.1305920000002,0.790907907823566
21.1379769999981,0.708939522621222
21.1457699999958,0.789622129232157
21.1522239999995,0.776121454022359
21.1594829999954,0.903413534571882
21.1660639999956,1.057706965541
21.1736030000001,0.871590514434502
21.1806140000001,0.977988692873623
21.1871180000007,0.969952576677315
21.1950819999948,1.17599859595066
21.2010649999976,1.1264961201814
21.2075410000011,1.15960491891019
21.2143949999958,1.32354168931488
21.2217789999992,1.14449702046113
21.2282949999943,1.22421529312851
21.2349309999943,1.38718772958964
21.2419299999997,1.37658005621051
21.2484710000008,1.29782611748669
21.2551719999984,1.26889609917998
21.2616440000013,1.32482746790629
21.2682659999952,1.44054754113313
21.2747449999973,1.55369605717715
21.2814809999987,1.55948206083849
21.2880019999966,1.44472632155521
21.2945469999984,1.50580080464715
21.3011510000005,1.46304866648279
21.3079860000014,1.47912089887541
21.3147509999946,1.50740802788641
21.321625,1.57266129140044
21.3284109999985,1.55755339295138
21.3353420000002,1.64434344787151
21.3421079999953,1.87964093009941
21.3488099999949,1.69802470406285
21.3552699999958,1.59676963998936
21.3620059999973,1.59419808280654
21.3687769999951,1.73691950645298
21.3748940000013,1.68516691814875
21.3817210000008,1.69095292181009
21.3886440000013,1.81728066841606
21.3962580000013,2.00564723205753
21.4027119999975,1.73402650462231
21.4096620000005,1.97543143515941
21.4177899999991,1.8089231075719
21.4242779999971,1.78385042503942
21.4303079999983,1.64048611209728
21.4373139999956,1.66620168392546
21.4437949999943,2.02107657515444
21.4502470000014,1.33800669846823
21.457324000001,1.92175017896807
21.4642100000009,1.29493311565602
21.4723379999995,1.86678314418532
21.478799999997,1.7266332777217
21.4853249999955,1.70766804349842
21.4921409999952,1.7327407260309
21.4997229999974,1.48554979183245
21.5065399999991,1.48587123648031
21.5130150000006,1.37561572226696
21.5205439999998,1.62923554942245
21.5276440000013,1.63180710660527
21.5344849999994,1.57298273604829
21.5417339999974,1.33543514128542
21.5483269999996,1.58487618801882
21.5550239999965,1.51608703337843
21.5622540000007,1.57619718252681
21.569248999998,1.59644819534151
21.5761550000012,1.65334389801137
21.5832140000016,1.65655834448989
21.5900359999984,1.61123464914272
21.5970700000003,1.60287708829856
21.6038139999956,1.66363012674265
21.6105339999944,1.72406172053888
21.6169549999982,1.76134929968975
21.6236099999994,1.84428201883566
21.6345960000008,1.71506127039902
21.642174999997,1.56848251097836
21.6488570000008,1.65945134632057
21.6554279999956,1.79381520912284
21.6627899999991,1.79027931799646
21.6695429999977,1.66555879462976
21.6763779999986,1.60673442407278
21.6831149999946,1.66909468575614
21.6899309999943,1.77292130701244
21.6967580000013,1.63566444237949
21.7035389999971,1.77002830518177
21.7109089999944,1.77645719813881
21.7176689999998,1.66266579279909
21.7244600000009,1.70670370955486
21.7311649999991,1.68966714321868
21.7379089999944,1.76809963729465
21.7445309999958,1.8095659968676
21.7511840000004,1.79060076264432
21.7575810000002,1.82531678461237
21.7639670000002,1.88960571418284
21.7724039999992,1.78031453391304
21.7799959999993,1.77645719813881
21.7871629999951,1.78995787334861
21.7937639999986,1.96160931530176
21.8002769999951,2.07829372247215
21.8067060000002,1.92882196122082
21.8133500000015,1.92014295572881
21.819736999996,1.84878224390559
21.8264939999953,1.88799849094357
21.8337719999999,1.93396507558646
21.8399409999996,1.93525085417787
21.8463200000003,2.00307567487471
21.8530059999973,1.99728967121337
21.8597439999953,2.15833343978738
21.8663729999959,2.0644716026145
21.8730049999952,1.93942963459995
21.8796030000001,2.04807792557403
21.8859539999962,2.02718402346363
21.8927800000012,1.91307117347606
21.8997399999946,1.87739081756445
21.9064169999957,1.72245449729962
21.9131019999981,2.04743503627833
21.9199289999977,1.87321203714237
21.926549999997,2.02911269135075
21.9333500000015,1.93717952206498
21.9401499999985,1.95775197952753
21.9469209999964,1.8359244579915
21.9535529999956,1.49037146155024
21.9603079999983,1.57298273604829
21.9671599999964,1.71377549180761
21.9736730000004,1.57394706999185
21.9800019999966,1.79992265743203
21.9862789999992,1.37561572226696
21.9930309999958,1.82595967390807
21.999436999999,1.59548386139795
22.0064530000016,1.5533746125293
22.0126889999956,1.55273172323359
22.0197870000005,1.5749114039354
22.0264930000007,1.49647890985943
22.0333539999947,1.51383692084346
22.0404389999956,1.48490690253675
22.0472170000002,1.56301795196487
22.0544829999954,1.63952177815372
22.0611929999962,1.62987843871815
22.0681899999976,1.72149016335607
22.0748179999962,1.70316781842848
22.0819479999989,1.81985222559888
22.0886070000008,1.81760211306391
22.0952980000004,1.78642198222224
22.1018849999979,1.91596417530673
22.1083640000001,1.77099263912532
22.1149890000001,1.88317682122579
22.1213399999961,1.95614475628827
22.1279589999989,1.84588924207492
22.1345410000011,1.84878224390559
22.1411070000008,1.82595967390807
22.1481319999993,1.7880292054615
22.155125,1.7610278550419
22.1618839999959,1.79606532165781
22.1685649999976,1.77870731067378
22.1751159999967,1.84460346348351
22.181561999999,1.96257364924531
22.1884519999996,1.99889689445263
22.1948219999969,2.0368273628992
22.2012879999951,1.98957499966491
22.2077549999952,1.8912129374221
22.2142709999979,2.05289959529182
22.2209769999981,2.01464768219739
22.2277030000016,2.05997137754457
22.2344789999947,2.002432785579
22.2409469999969,1.91371406277176
22.2474479999989,2.17279844894074
22.2539629999995,2.1326178679592
22.2603879999965,2.07282916345866
22.2672709999979,1.96707387431525
22.2737899999991,2.05868559895316
22.2812339999974,2.30555508850375
22.2878589999974,2.24737360724248
22.2943809999973,2.17215555964503
22.3009769999981,2.38013024680549
22.307998999998,1.98603910853853
22.3156149999946,1.71570415969472
22.3222069999948,1.91532128601102
22.3291719999984,1.77195697306888
22.3357809999958,1.87610503897304
22.3425929999948,1.78738631616579
22.3495190000013,2.07636505458504
22.3568319999948,2.06157860078383
22.3636259999946,1.70316781842848
22.3702639999986,1.3881520635332
22.3770639999956,1.4710847826791
22.3836629999951,1.90824950375827
22.3902939999998,2.10175918176537
22.396987999998,1.70959671138553
22.4035129999965,1.65334389801137
22.4105459999964,1.53408793365816
22.4179860000014,1.67230913223466
22.4247149999961,1.66523734998191
22.4318399999961,1.70959671138553
22.4384829999954,1.74945584771922
22.4452170000002,1.78481475898298
22.4522479999959,1.88542693376075
22.458686999999,1.75459896208486
22.4649199999943,1.59451952745439
22.4715139999986,1.88831993559143
22.4781660000011,2.02782691275934
22.4856070000008,1.71023960068123
22.4924629999995,1.67391635547392
22.499311999999,1.82113800419029
22.5055029999986,2.00339711952256
22.5123249999955,1.92914340586867
22.5192789999992,1.83335290080868
22.5259459999949,1.94007252389565
22.5328839999959,1.83045989897801
22.5398889999986,1.81342333264183
22.5469799999967,1.82949556503445
22.5541149999946,1.73016916884808
22.5613299999982,1.81020888616331
22.5684629999995,1.94682286150055
22.5752079999968,1.97318132262444
22.5818849999979,2.02107657515444
22.588612999998,1.89924905361841
22.5951719999984,1.97864588163793
22.6020159999952,1.95518042234471
22.6085179999992,2.06157860078383
22.615498999998,2.03168424853357
22.6222859999985,2.0577212650096
22.6289139999971,2.01046890177531
22.6354839999974,2.12072441598866
22.6424560000002,2.09468739951262
22.6490649999976,2.12715330894571
22.6562309999987,2.15801199513953
22.6630169999972,2.20044268865604
22.66975,2.05900704360101
22.6763039999977,2.11943863739725
22.6828889999986,2.11461696767947
22.6894780000001,2.14129687345121
22.6960129999965,2.18533479020698
22.7029750000015,2.11429552303161
22.7097629999965,2.05000659346115
22.7166339999959,2.05675693106605
22.7237329999954,2.27855373808416
22.7295389999971,2.30137630808167
22.7361819999963,2.08247250289423
22.7416489999965,1.52830192999681
22.7479479999989,2.00371856417041
22.7538879999965,1.69416736828862
22.7598699999973,2.11493841232732
22.7659029999971,2.03329147177283
22.7717170000002,1.71763282758184
22.7776389999986,1.65109378547641
22.783185999997,1.97543143515941
22.7893439999968,1.82531678461237
22.7953399999961,1.65495112125063
22.8013579999953,1.90182061080122
22.8073339999989,1.80185132531915
22.8133659999967,1.68130958237452
22.8187639999986,1.64434344787151
22.8244539999962,1.70091770589352
22.8303859999999,1.77677864278667
22.8361589999944,1.57330418069614
22.8422809999958,1.67327346617822
22.8481400000006,1.89442738390062
22.8535859999955,1.81792355771177
22.8592800000012,1.68163102702238
22.8651149999946,1.67938091448741
22.871060999997,1.68516691814875
22.8770749999955,1.7118468239205
22.8829149999991,1.86003280658042
22.8888869999945,1.92014295572881
22.8943669999987,1.80249421461485
22.9007809999958,1.62023509928258
22.9071589999944,1.77549286419526
22.9134169999957,2.00596867670538
22.9201290000007,1.89346304995706
22.9260949999988,1.72149016335607
22.9319499999955,1.76070641039405
22.9378189999983,1.90117772150552
22.9430810000002,1.86196147446753
22.9489319999963,1.86646169953747
22.9551000000015,1.96193075994961
22.9610659999996,1.88124815333867
22.9668469999954,1.72116871870821
22.972487999998,1.69095292181009
22.9776629999951,1.76745674799895
22.9836959999949,1.81117322010687
22.9895249999985,1.79927976813633
22.995688000001,1.83978179376572
23.0015689999983,1.8507109117927
23.00725,1.85842558334116
23.0126459999979,1.89378449460492
23.0184979999959,2.10175918176537
23.0244079999998,1.90953528234968
23.0306409999952,1.77806442137808
23.0364750000015,1.91499984136317
23.0423429999948,1.99471811403055
23.0477559999973,2.00661156600108
23.0535379999951,1.98346755135572
23.0593549999967,1.83463867940009
23.0652170000002,1.98186032811645
23.0710659999996,2.10786663007457
23.0770349999964,2.11043818725739
23.0823859999999,2.11365263373591
23.0883390000016,2.03425580571638
23.0948350000009,2.15479754866101
23.1008869999945,2.06929327233229
23.1072009999976,2.22712259442778
23.113199000001,2.24673071794678
23.1189699999988,2.46016996412072
23.1242119999975,2.07250771881081
23.130199000001,2.0712219402194
23.1368570000008,2.30684086709516
23.1429149999991,1.81470911123324
23.1486510000005,1.67038046434755
23.1548949999958,2.12908197683282
23.1607229999974,1.79445809841854
23.1661349999979,1.98121743882075
23.1716669999957,1.65237956406781
23.1776180000007,1.95807342417538
23.1834719999954,1.67873802519171
23.1894809999987,1.76006352109835
23.1952439999953,1.70123915054137
23.2007049999982,1.86035425122827
23.2065029999986,1.78449331433512
23.2124179999977,1.73434794927016
23.2182509999946,1.69416736828862
23.2242159999982,1.43701165000675
23.2299209999964,1.68516691814875
23.2352439999953,1.76167074433761
23.2412259999961,1.77227841771673
23.2474439999983,1.37368705437984
23.2532009999976,1.56880395562621
23.2591639999971,1.9403939685435
23.2651299999952,1.79702965560136
23.270625,1.802172769967
23.2761209999993,1.73402650462231
23.2822100000009,1.74141973152291
23.2880009999946,1.78931498405291
23.2940139999986,1.73820528504439
23.2996909999996,1.7468842905364
23.3049189999998,1.90471361263189
23.3107559999973,1.88896282488713
23.3166569999978,1.75492040673271
23.322737999998,1.90085627685767
23.3293819999993,1.77163552842103
23.3352419999987,1.75267029419774
23.3411169999987,1.878355151508
23.3464579999968,2.022040909098
23.3520709999949,1.87514070502948
23.3580309999958,1.81406622193754
23.3639289999977,1.83013845433015
23.3698869999945,1.84781790996203
23.3759129999951,1.73756239574868
23.3812969999984,1.76874252659036
23.3870339999944,1.75234884954989
23.3928830000013,1.74431273335358
23.3989179999977,1.84781790996203
23.4052529999986,1.96160931530176
23.4113999999985,1.85231813503196
23.4175339999944,1.92753618262941
23.4230670000017,1.95003730797907
23.4287709999979,1.95228742051404
23.4348839999959,1.93814385600854
23.440563000001,1.93042918446008
23.4466429999992,1.99728967121337
23.4524829999954,2.0368273628992
23.4575969999954,1.91724995389814
23.4633029999956,1.79799398954492
23.4692199999988,1.95485897769686
23.4750759999976,2.1258675303543
23.4809160000011,2.06029282219242
23.4866829999983,2.06736460444517
23.4918579999954,2.11075963190524
23.4983090000004,2.03071991459001
23.5041279999986,2.13583231443772
23.5099050000012,2.33159210497979
23.5163159999996,2.32484176737489
23.5225219999999,2.03329147177283
23.5285969999954,1.99664678191766
23.534049999997,2.13165353401564
23.539875,2.06543593655806
23.5459069999978,1.88896282488713
23.5517100000009,1.68902425392298
23.5578769999966,2.10915240866598
23.5635949999988,1.86935470136814
23.5687839999944,1.94296552572632
23.5749780000001,1.7677781926468
23.5814010000005,1.71956149546895
23.5874069999978,1.68388113955734
23.5936309999973,1.99375378008699
23.599550999999,1.99375378008699
23.6053849999979,1.58262607548386
23.6107430000007,1.63855744421016
23.6162280000001,1.69256014504936
23.6221419999972,1.85585402615834
23.6278769999966,1.25218097749166
23.6340239999965,1.68516691814875
23.6399739999995,1.70316781842848
23.6453149999976,1.4987290223944
23.6508280000016,1.59419808280654
23.6571000000015,1.63180710660527
23.6630449999943,1.67359491082607
23.6691419999972,1.6025556436507
23.6749689999968,1.55273172323359
23.6804930000007,1.78835065010935
23.6873509999961,1.81053033081116
23.6927299999967,1.67230913223466
23.6991719999984,1.6713447982911
23.7051189999953,1.64337911392795
23.7111220000014,1.62409243505681
23.7171089999974,1.78738631616579
23.7229649999961,1.70638226490701
23.7281669999957,1.60769875801634
23.7339109999985,1.70252492913278
23.7396469999999,1.77131408377318
23.7455659999996,1.6774522466003
23.751174999997,1.61702065280406
23.7561660000011,1.6774522466003
23.7616819999963,1.78577909292653
23.7673259999976,1.4366902053589
23.7734329999983,1.43540442676749
23.7803879999965,1.51608703337843
23.7877729999945,1.49262157408521
23.7947519999966,1.54630283027655
23.8017289999947,1.57909018435748
23.8085599999949,1.65559401054634
23.8162829999998,1.58969785773661
23.8219329999983,1.57909018435748
23.8288350000009,1.66041568026412
23.8351639999971,1.65687978913775
23.8420449999943,1.63084277266171
23.8488179999962,1.64916511758929
23.8557690000013,1.76231363363331
23.8625689999983,1.7333836153266
23.8694389999956,1.7677781926468
23.8761469999999,1.76617096940754
23.8825539999977,1.6154134295648
23.8891550000012,1.96450231713243
23.8958849999979,2.00468289811397
23.9029499999955,1.80410143785411
23.9093350000009,1.7947795430664
23.916486999996,2.05547115247464
23.9241929999962,1.67005901969969
23.9309289999977,2.02043368585873
23.9377269999981,1.76552808011184
23.9440829999968,1.42093941761414
23.9509549999982,1.55691050365567
23.9574099999964,1.57941162900534
23.9643439999968,1.9606449813582
23.9710549999997,1.32643469114555
23.9775089999959,1.39586673508165
23.984061999999,1.5958053060458
23.9904649999961,1.3193629088928
23.9970960000008,1.54758860886795
24.0036299999952,1.21714351087576
24.0102839999944,1.45308388239937
24.0170579999983,1.31036245875293
24.0237879999951,1.153497470601
24.031061999999,1.28946855664253
24.0378179999962,1.39875973691233
24.0448489999995,1.40679585310863
24.0514780000001,1.38654484029394
24.0582919999957,1.22325095918495
24.0651909999996,1.22742973960703
24.0720239999965,1.506122249295
24.0790929999948,1.42093941761414
24.0855229999945,1.29364733706461
24.0926569999978,1.32354168931488
24.0998559999987,1.62634254759178
24.1076559999958,1.57780440576607
24.1143090000004,1.38236605987186
24.1212229999974,1.51544414408272
24.1284579999968,1.39940262620803
24.1354809999987,1.37111549719702
24.1422360000014,1.41611774789635
24.1496030000001,1.57844729506178
24.1553989999965,1.52701615140541
24.1613809999973,1.48940712760668
24.1686599999964,1.43508298211964
24.1753849999979,1.46562022366561
24.1825480000004,1.50740802788641
24.1893369999975,1.45983422000427
24.1957419999987,1.42447530874051
24.2025979999974,1.48137101141037
24.2095559999943,1.60705586872064
24.2162140000015,1.59387663815869
24.2229860000014,1.67520213406533
24.229699000001,1.68066669307882
24.2365370000005,1.70638226490701
24.243375,1.76681385870324
24.2508999999985,1.7394910636358
24.2578989999965,1.72020438476466
24.2647009999976,1.88156959798653
24.2706529999971,1.96418087248458
24.2775190000013,1.78513620363083
24.2844530000016,1.69191725575365
24.2926079999954,2.2849826310412
24.2995159999952,1.67841658054385
24.3066180000007,2.19562101893825
24.3133599999994,2.08150816895068
24.3202739999965,1.7536346281413
24.3269589999989,1.8703190353117
24.3330029999986,1.65334389801137
24.3409750000015,1.7475271798321
24.3463170000017,1.55498183576856
24.3525040000007,1.62987843871815
24.3591770000011,1.56333939661272
24.3652819999978,2.06736460444517
24.371487999998,1.63180710660527
24.3782719999999,1.48715701507172
24.3845439999998,1.45822699676501
24.3910729999989,1.69641748082358
24.3974349999949,1.60544864548137
24.4037919999957,1.9815388834686
